VAMAS Surface Chemical Analysis Standard Data Transfer Format 1988 May 4
Not Specified
Kratos Axis
Not Specified
/C=/data/BAM_I/Schneider/schneid_029.dset
4
Casa Info Follows CasaXPS Version 2.3.20rev1.2G
0
NM104
SourceAnalyserAngle: Not Specified
MAP
REGULAR
13
2
32768
32768
1
Etch Time
s
0
0
0
0
13
widescan/1
Not Specified
2019
5
29
17
16
21
0
9
Casa Info Follows
1
Calib M = 282.249 A = 285 BE ADD
0
0
0
   XPS     Spectrum    Lens Mode:Hybrid   Resolution:Pass energy 80    Iris(Aper):slot(SLOT)
   Acqn. Time(s): 1201       Sweeps: 2        Anode:Mono(Al (Mono))(150 W)   Step(meV): 1000.0
   Dwell Time(ms): 500        Charge Neutraliser :On   Acquired On :19/05/29 17:16:21
XPS
88
0
0
Mono(Al (Mono))
1486.69
150
1e+037
1e+037
641
641
1e+037
1e+037
FAT
80
1e+037
-4.5
0
1e+037
1e+037
1e+037
1e+037
Wide
None
-1
Kinetic Energy
eV
286.69
1
2
Intensity
d
Transmission
d
pulse counting
0.5
2
0
1e+037
1e+037
1e+037
0
2402
244
82550
4.10173
7.3408
24873
7.3408
24995
7.3341
25138
7.3274
25174
7.3207
25408
7.314
25263
7.3073
25582
7.3006
25605
7.2939
25709
7.2872
25735
7.2805
25710
7.2738
25979
7.2671
26324
7.2604
26037
7.25369
26238
7.24699
26097
7.24029
26360
7.23359
26347
7.22689
26390
7.22019
26805
7.21349
26617
7.20679
26623
7.20009
26767
7.19339
26745
7.18669
26948
7.17999
27168
7.17329
27017
7.16658
27146
7.15988
27313
7.15318
27638
7.14648
27478
7.13978
27571
7.13308
27375
7.12638
27334
7.11968
27652
7.11298
27732
7.10628
27664
7.09958
27725
7.09288
27598
7.08618
28028
7.07948
27822
7.07277
28179
7.06607
28359
7.06065
28412
7.0568
28577
7.05296
28624
7.04912
28415
7.04527
28577
7.04143
28805
7.03758
28762
7.03374
28836
7.02989
28786
7.02605
28930
7.0222
28990
7.01836
29067
7.01451
29016
7.01067
28808
7.00682
29086
7.00298
29251
6.99913
29240
6.99529
29084
6.99144
29319
6.9876
29436
6.98375
29384
6.97991
29690
6.97606
29736
6.97222
30005
6.96837
30425
6.96453
30315
6.96068
30182
6.95684
30215
6.95299
30329
6.94915
29936
6.9453
30308
6.94146
30293
6.93761
30279
6.93377
30598
6.92992
30695
6.92608
30349
6.92224
30450
6.91839
30252
6.91455
30121
6.9107
29991
6.90686
30184
6.90301
30250
6.89917
29992
6.89532
30012
6.89148
30290
6.88763
30288
6.88379
30873
6.87994
30836
6.8761
30869
6.87225
31272
6.86841
31543
6.86456
32186
6.86072
32727
6.85687
33208
6.85303
33063
6.84918
33282
6.84534
32736
6.84149
32420
6.83765
31785
6.8338
30996
6.82996
30434
6.82611
29797
6.82227
28754
6.81842
28104
6.81458
27889
6.81073
27785
6.80689
27556
6.80304
27193
6.7992
27311
6.79535
27336
6.79151
27207
6.78767
27028
6.78382
27283
6.77998
27189
6.77613
26943
6.77229
27087
6.76844
27129
6.7646
26989
6.76075
26825
6.75691
26773
6.75306
27090
6.74922
27162
6.74537
27287
6.74153
27689
6.73768
27997
6.73384
28593
6.72999
29085
6.72615
29410
6.7223
29858
6.71846
29444
6.71461
28956
6.71077
28759
6.70692
28172
6.70308
28128
6.69923
28130
6.69539
27637
6.69154
27473
6.6877
27197
6.68385
27047
6.68001
26936
6.67616
26908
6.67232
26919
6.66847
26743
6.66463
26970
6.66079
26761
6.65694
27023
6.6531
26854
6.64925
26717
6.64541
26803
6.64156
26843
6.63772
27041
6.63387
27132
6.63003
26866
6.62618
27114
6.62234
26933
6.61849
27286
6.61465
27453
6.6108
27400
6.60696
27507
6.60311
27406
6.59927
27663
6.59542
27761
6.59158
27857
6.58773
27694
6.58389
28032
6.58004
27855
6.5762
27746
6.57235
27756
6.56891
27885
6.56566
28100
6.56242
28114
6.55918
28169
6.55594
28306
6.5527
28416
6.54945
28508
6.54621
28576
6.54297
28755
6.53973
28651
6.53649
29104
6.53324
29071
6.53
29072
6.52676
29245
6.52352
29209
6.52028
29295
6.51703
29307
6.51379
29234
6.51055
29437
6.50731
29431
6.50407
29684
6.50082
29940
6.49758
29863
6.49434
29662
6.4911
30162
6.48786
30281
6.48461
30085
6.48137
30147
6.47813
30404
6.47489
30588
6.47165
31142
6.4684
31531
6.46516
31396
6.46192
31295
6.45868
31517
6.45544
31471
6.45219
32171
6.44895
31986
6.44571
32094
6.44247
31559
6.43923
30708
6.43598
29924
6.43274
29797
6.4295
29747
6.42626
29577
6.42302
29219
6.41977
29413
6.41653
29654
6.41329
30080
6.41005
30360
6.40681
31016
6.40356
32313
6.40032
33721
6.39708
34996
6.39384
35953
6.39059
37557
6.38735
38899
6.38411
39936
6.38087
39164
6.37763
35570
6.37438
32414
6.37114
30052
6.3679
28491
6.36466
27175
6.36142
25901
6.35817
25015
6.35493
23863
6.35169
22826
6.34845
22083
6.34521
21759
6.34196
21667
6.33872
21637
6.33548
21662
6.33224
21598
6.329
21421
6.32575
21416
6.32251
21578
6.31927
21688
6.31603
21693
6.31279
21795
6.30954
21804
6.3063
21988
6.30306
21898
6.29982
21874
6.29658
21949
6.29333
21774
6.29009
21904
6.28685
21800
6.28361
21938
6.28037
21736
6.27712
21947
6.27388
22168
6.27064
22236
6.2674
21987
6.26416
21911
6.26091
22177
6.25767
22167
6.25443
22420
6.25119
22457
6.24795
22167
6.2447
22248
6.24146
22510
6.23822
22455
6.23498
22208
6.23174
22165
6.22849
22393
6.22525
22428
6.22201
22465
6.21877
22450
6.21553
22344
6.21228
22661
6.20904
22705
6.2058
22698
6.20256
22949
6.19931
22591
6.19607
22622
6.19283
22500
6.18959
22902
6.18635
22550
6.1831
22526
6.17986
22802
6.17662
22862
6.17338
22892
6.17014
22968
6.16689
22946
6.16365
22689
6.16041
22910
6.15717
22981
6.15393
22954
6.15068
23082
6.14744
22910
6.1442
22899
6.14096
23171
6.13772
23156
6.13447
22992
6.13123
23161
6.12799
23205
6.12475
23188
6.12151
23159
6.11826
23308
6.11502
23266
6.11178
22986
6.10854
23231
6.1053
23303
6.10205
23165
6.09881
23236
6.09557
23354
6.09233
23669
6.08909
23441
6.08584
23653
6.0826
23760
6.07936
23736
6.07612
23759
6.07288
23556
6.06963
23514
6.06639
23557
6.06315
23746
6.05991
23732
6.05667
23519
6.05342
23832
6.05018
23824
6.04694
23840
6.0437
23710
6.04046
23943
6.03721
24214
6.03397
24230
6.03073
23989
6.02749
24025
6.02425
23987
6.021
24299
6.01776
24116
6.01452
24047
6.01128
24049
6.00803
24041
6.00479
24230
6.00155
24077
5.99831
24184
5.99507
24221
5.99182
24141
5.98858
24181
5.98534
24196
5.9821
24346
5.97886
24317
5.97561
24261
5.97237
24385
5.96913
24548
5.96589
24511
5.96265
24491
5.9594
24624
5.95616
24576
5.95292
24651
5.94968
24666
5.94644
24690
5.94319
24735
5.93995
24851
5.93671
24870
5.93347
24810
5.93023
24924
5.92698
24959
5.92374
24870
5.9205
24962
5.91726
24966
5.91402
25242
5.91077
25055
5.90753
25074
5.90429
24877
5.90105
24980
5.89781
24913
5.89456
24930
5.89159
24857
5.88871
25014
5.88583
24767
5.88295
25035
5.88007
25183
5.87719
25139
5.87431
24930
5.87143
24985
5.86855
24987
5.86567
24967
5.86279
25088
5.85991
25180
5.85703
25230
5.85414
25345
5.85126
25354
5.84838
25404
5.8455
25306
5.84262
25464
5.83974
25305
5.83686
25317
5.83398
25374
5.8311
25431
5.82822
25636
5.82534
25478
5.82246
25597
5.81957
25549
5.81669
25704
5.81381
25665
5.81093
25659
5.80805
25634
5.80517
25599
5.80229
25675
5.79941
25750
5.79653
25731
5.79365
25739
5.79077
25911
5.78789
25847
5.78501
25722
5.78212
25971
5.77924
25999
5.77636
25885
5.77348
25895
5.7706
26070
5.76772
26050
5.76484
25895
5.76196
26053
5.75908
26118
5.7562
26038
5.75332
26187
5.75044
26170
5.74756
26094
5.74467
26115
5.74179
26223
5.73891
26330
5.73603
26060
5.73315
26296
5.73027
26497
5.72739
26476
5.72451
26396
5.72163
26370
5.71875
26572
5.71587
26479
5.71299
26470
5.7101
26428
5.70722
26536
5.70434
26449
5.70146
26788
5.69858
26584
5.6957
26580
5.69282
26739
5.68994
26748
5.68706
26693
5.68418
26367
5.6813
26688
5.67842
26748
5.67554
26690
5.67265
26944
5.66977
27021
5.66689
26685
5.66401
26871
5.66113
26945
5.65825
26762
5.65537
26986
5.65249
27225
5.64961
26759
5.64673
26849
5.64385
26974
5.64097
27077
5.63808
27173
5.6352
27228
5.63232
26997
5.62944
26946
5.62656
27252
5.62368
27200
5.6208
27192
5.61792
27402
5.61504
27152
5.61216
27380
5.60928
27338
5.6064
27263
5.60352
27276
5.60064
27286
5.59775
27268
5.59487
27417
5.59199
27500
5.58911
27464
5.58623
27795
5.58335
27647
5.58047
27810
5.57759
27852
5.57471
27480
5.57183
27464
5.56895
27599
5.56607
27551
5.56318
27645
5.5603
27510
5.55742
27669
5.55454
27722
5.55166
27475
5.54878
27780
5.5459
27735
5.54302
27809
5.54014
27768
5.53726
27858
5.53438
27640
5.5315
27528
5.52861
27659
5.52573
27825
5.52285
27832
5.51997
27784
5.51709
28136
5.51421
28059
5.51133
28035
5.50845
28359
5.50557
28396
5.50269
28247
5.49981
28492
5.49693
28797
5.49405
29005
5.49116
28655
5.48828
28178
5.4854
28456
5.48252
28345
5.47964
28280
5.47676
28192
5.47388
28150
5.471
28156
5.46812
28519
5.46524
28500
5.46236
28357
5.45948
28318
5.4566
28156
5.45371
28327
5.45083
28149
5.44795
28432
5.44507
28373
5.44219
28372
5.43931
28496
5.43643
28523
5.43355
28606
5.43067
28480
5.42779
28373
5.42491
28615
5.42203
28652
5.41915
28814
5.41626
28640
5.41338
28730
5.4105
28776
5.40762
28589
5.40474
28753
5.40186
28713
5.39898
28864
5.3961
29021
5.39322
28903
5.39034
28928
5.38746
28955
5.38458
28826
5.38169
28848
5.37881
29016
5.37593
29025
5.37305
29022
5.37017
28997
5.36729
29026
5.36441
29116
5.36153
29292
5.35865
29067
5.35577
29224
5.35289
29080
5.35001
29092
5.34713
29073
5.34424
29122
5.34136
29234
5.33848
29079
5.3356
29237
5.33272
29171
5.32984
29262
5.32696
29373
5.32408
29371
5.3212
29305
5.31832
29273
5.31544
29387
5.31256
29517
5.30968
29583
5.30679
29328
5.30391
29285
5.30103
29452
5.29815
29751
5.29527
29506
5.29239
29726
5.28951
29636
5.28663
29516
5.28375
29509
5.28087
29452
5.27799
29447
5.27511
29783
5.27222
29680
5.26934
29711
5.26646
29939
5.26358
29725
5.2607
29659
5.25782
29892
5.25494
29695
5.25288
29458
5.25089
29522
5.24889
29567
5.2469
29788
5.24491
30022
5.24292
29777
5.24093
29841
5.23894
29959
5.23694
30235
5.23495
30373
5.23296
30423
5.23097
30159
5.22898
29968
5.22699
30234
5.225
30112
5.223
30063
5.22101
30491
5.21902
30706
5.21703
30826
5.21504
30992
5.21305
31361
5.21106
31492
5.20906
31672
5.20707
31571
5.20508
31042
5.20309
30618
5.2011
29982
5.19911
29849
5.19712
29663
5.19512
29491
5.19313
29547
5.19114
30052
5.18915
30781
5.18716
31698
5.18517
33004
5.18318
34480
5.18118
34695
5.17919
33202
5.1772
31311
5.17521
30051
5.17322
28944
5.17123
28307
5.16923
28675
5.16724
28683
5.16525
28265
5.16326
28408
5.16127
28084
5.15928
27754
5.15729
26981
5.15529
26459
5.1533
26013
5.15131
25334
5.14932
24856
5.14733
24923
5.14534
25199
5.14335
24988
5.14135
25236
5.13936
24960
5.13737
24312
5.13538
24002
5.13339
23212
5.1314
22015
5.12941
21118
5.12741
20885
5.12542
21051
5.12343
21936
5.12144
24264
5.11945
31999
5.11746
47166
5.11547
59067
5.11347
68481
5.11148
82550
5.10949
48841
5.1075
20617
5.10551
16557
5.10352
15858
5.10153
15539
5.09953
15350
5.09754
15311
5.09555
15357
5.09356
15251
5.09157
15227
5.08958
15148
5.08758
15317
5.08559
15045
5.0836
14874
5.08161
15089
5.07962
15249
5.07763
15109
5.07564
15367
5.07364
15214
5.07165
15299
5.06966
15245
5.06767
14842
5.06568
15023
5.06369
15090
5.0617
15031
5.0597
14917
5.05771
14762
5.05572
14369
5.05373
14337
5.05174
14315
5.04975
14417
5.04776
14643
5.04576
14788
5.04377
15222
5.04178
15197
5.03979
14766
5.0378
14778
5.03581
14783
5.03382
15069
5.03182
15381
5.02983
15534
5.02784
16099
5.02585
16575
5.02386
15993
5.02187
15609
5.01988
15477
5.01788
15459
5.01589
15250
5.0139
15126
5.01191
15473
5.00992
16102
5.00793
16257
5.00593
15825
5.00394
15016
5.00195
14879
4.99996
15226
4.99797
16448
4.99598
16740
4.99399
15008
4.99199
12773
4.99
11610
4.98801
11739
4.98602
12976
4.98403
17275
4.98204
24680
4.98005
24851
4.97805
16760
4.97606
12935
4.97407
14160
4.97208
23769
4.97009
47110
4.9681
34348
4.96611
8550
4.96411
4050
4.96212
3239
4.96013
2878
4.95796
2716
4.95572
2723
4.95347
2725
4.95123
2695
4.94898
2638
4.94673
2558
4.94449
2582
4.94224
2601
4.94
2532
4.93775
2593
4.93551
2617
4.93326
2604
4.93101
2568
4.92877
2583
4.92652
2577
4.92428
2518
4.92203
2523
4.91979
2610
4.91754
2509
4.91529
2603
4.91305
2631
4.9108
2530
4.90856
2520
4.90631
2541
4.90406
2581
4.90182
2579
4.89957
2529
4.89733
2555
4.89508
2634
4.89284
2575
4.89059
2546
4.88834
2533
4.8861
2567
4.88385
2473
4.88161
2485
4.87936
2500
4.87712
2578
4.87487
2587
4.87262
2534
4.87038
2510
4.86813
2561
4.86589
2559
4.86364
2544
4.86139
2586
4.85915
2560
4.8569
2540
4.85466
2545
4.85241
2529
4.85017
2558
4.84792
2542
4.84567
2602
4.84343
2668
4.84118
2765
4.83894
2577
4.83669
2617
4.83445
2591
4.8322
2530
4.82995
2542
4.82771
2506
4.82546
2572
4.82322
2624
4.82097
2442
4.81873
2456
4.81648
2408
4.81423
2527
4.81199
2574
4.80974
2518
4.8075
2652
4.80525
2543
4.803
2587
4.80076
2577
4.79851
2595
4.79627
2597
4.79402
2604
4.79178
2569
4.78953
2581
4.78728
2603
4.78504
2540
4.78279
2515
4.78055
2573
4.7783
2602
4.77606
2550
4.77381
2612
4.77156
2598
4.76932
2508
4.76707
2523
4.76483
2552
4.76258
2687
4.76033
2657
4.75809
2645
4.75584
2608
4.7536
2615
4.75135
2546
4.74911
2617
4.74686
2568
4.74461
2587
4.74237
2565
4.74012
2604
4.73788
2533
4.73563
2554
4.73339
2548
4.73114
2601
4.72889
2577
4.72665
2642
4.7244
2599
4.72216
2711
4.71991
2679
4.71767
2668
4.71542
2632
4.71317
2657
4.71093
2660
4.70868
2636
4.70644
2647
4.70419
2587
4.70195
2654
4.6997
2548
4.69745
2603
4.69521
2572
4.69296
2644
4.69072
2647
4.68847
2607
4.68622
2581
4.68398
2649
4.68173
2683
4.67949
2665
4.67724
2621
4.675
2683
4.67275
2669
4.6705
2585
4.66826
2651
4.66601
2652
4.66377
2694
4.66152
2673
4.65928
2703
4.65703
2766
4.65478
2722
4.65254
2668
4.65029
2704
4.64805
2839
4.6458
2682
4.64356
2872
4.64131
2818
4.63906
2759
4.63682
2754
4.63457
2783
4.63233
2798
4.63008
2681
4.62783
2690
4.62559
2820
4.62334
2740
4.6211
2785
4.61885
2796
4.61661
2735
4.61436
2749
4.61211
2702
4.60987
2753
4.60762
2650
4.60538
2678
4.60313
2702
4.60089
2771
4.59864
2756
4.59639
2760
4.59415
2818
4.5919
3112
4.58966
3435
4.58741
3907
4.58517
4931
4.58292
4981
4.58067
4062
4.57843
3018
4.57618
2603
4.57394
2534
4.57169
2476
4.56944
2543
4.5672
2570
4.56495
2576
4.56271
2570
4.56046
2503
4.55822
2482
4.55597
2500
4.55372
2644
4.55148
2684
4.54923
2700
4.54699
2812
4.54474
2757
4.5425
2692
4.54025
2624
4.538
2586
4.53576
2511
4.53351
2530
4.53127
2593
4.52902
2577
4.52677
2537
4.52453
2525
4.52228
2514
4.52004
2489
4.51779
2427
4.51555
2513
4.5133
2428
4.51105
2503
4.50881
2525
4.50679
2506
4.50485
2557
4.50291
2601
4.50098
2555
4.49904
2606
4.4971
2468
4.49516
2525
4.49322
2468
4.49128
2508
4.48934
2502
4.4874
2595
4.48546
2498
4.48353
2553
4.48159
2540
4.47965
2541
4.47771
2575
4.47577
2680
4.47383
2738
4.47189
2828
4.46995
2889
4.46801
2804
4.46607
2627
4.46414
2610
4.4622
2636
4.46026
2593
4.45832
2548
4.45638
2554
4.45444
2578
4.4525
2613
4.45056
2618
4.44862
2509
4.44668
2538
4.44475
2538
4.44281
2598
4.44087
2556
4.43893
2587
4.43699
2594
4.43505
2537
4.43311
2555
4.43117
2525
4.42923
2559
4.42729
2571
4.42536
2556
4.42342
2598
4.42148
2531
4.41954
2588
4.4176
2561
4.41566
2550
4.41372
2651
4.41178
2538
4.40984
2614
4.4079
2770
4.40597
2877
4.40403
2922
4.40209
2825
4.40015
2647
4.39821
2664
4.39627
2582
4.39433
2540
4.39239
2545
4.39045
2536
4.38851
2605
4.38658
2625
4.38464
2626
4.3827
2614
4.38076
2628
4.37882
2617
4.37688
2554
4.37494
2536
4.373
2582
4.37106
2587
4.36912
2563
4.36719
2624
4.36525
2587
4.36331
2527
4.36137
2635
4.35943
2596
4.35749
2592
4.35555
2585
4.35361
2611
4.35167
2682
4.34973
2892
4.3478
3160
4.34586
3146
4.34392
2892
4.34198
2648
4.34004
2664
4.3381
2768
4.33616
2665
4.33422
2661
4.33228
2703
4.33034
2649
4.32841
2629
4.32653
2697
4.32484
2663
4.32315
2670
4.32146
2807
4.31977
2760
4.31808
2753
4.31639
2809
4.3147
2751
4.31301
2742
4.31132
2763
4.30963
2772
4.30794
2756
4.30625
2756
4.30456
2813
4.30288
2761
4.30119
2817
4.2995
2835
4.29781
2848
4.29612
2873
4.29443
2795
4.29274
2751
4.29105
2709
4.28936
2834
4.28767
2838
4.28598
2737
4.28429
2726
4.2826
2749
4.28091
2767
4.27922
2699
4.27753
2744
4.27584
2714
4.27415
2728
4.27247
2778
4.27078
2810
4.26909
2845
4.2674
2893
4.26571
2959
4.26402
3330
4.26233
4247
4.26064
5601
4.25895
5460
4.25726
3912
4.25557
3030
4.25388
2779
4.25219
2740
4.2505
2761
4.24881
2741
4.24712
2772
4.24543
2713
4.24375
2713
4.24206
2688
4.24037
2648
4.23868
2643
4.23699
2599
4.2353
2626
4.23361
2680
4.23192
2705
4.23023
2738
4.22854
2739
4.22685
2782
4.22516
2734
4.22347
2669
4.22178
2723
4.22009
2685
4.2184
2718
4.21671
2742
4.21503
2793
4.21334
2775
4.21165
2833
4.20996
2858
4.20827
2751
4.20658
2768
4.20489
2802
4.2032
2797
4.20151
2781
4.19982
2716
4.19813
2628
4.19644
2633
4.19475
2630
4.19306
2606
4.19137
2656
4.18968
2744
4.18799
3089
4.18631
3830
4.18462
5021
4.18293
4423
4.18124
2860
4.17955
2415
4.17786
2335
4.17617
2307
4.17448
2351
4.17279
2528
4.1711
2541
4.16941
2623
4.16772
2912
4.16603
3422
4.16434
4263
4.16265
4459
4.16096
3589
4.15927
2811
4.15759
2335
4.1559
2139
4.15421
2093
4.15252
2106
4.15083
2051
4.14914
2138
4.14745
2233
4.14576
2388
4.14407
2343
4.14238
2267
4.14069
2120
4.139
1951
4.13731
1829
4.13562
1742
4.13393
1731
4.13224
1840
4.13055
1937
4.12887
2056
4.12718
2323
4.12549
2756
4.1238
3657
4.12211
5671
4.12042
6322
4.11873
3730
4.11704
1745
4.11535
1142
4.11366
938
4.11197
863
4.11028
828
4.10859
813
4.1069
920
4.10521
1064
4.10352
1184
4.10183
1321
4.10173
1496
4.10173
1827
4.10173
2291
4.10173
2325
4.10173
1704
4.10173
1089
4.10173
679
4.10173
484
4.10173
371
4.10173
292
4.10173
291
4.10173
244
4.10173
269
4.10173
311
4.10173
347
4.10173
408
4.10173
509
4.10173
853
4.10173
936
4.10173
963
4.10173
877
4.10173
556
4.10173
247
4.10173
F 1s/2
Not Specified
2019
5
29
17
39
46
0
9
Casa Info Follows
1
Calib M = 282.249 A = 285 BE ADD
0
0
0
   XPS     Spectrum    Lens Mode:Hybrid   Resolution:Pass energy 20    Iris(Aper):slot(SLOT)
   Acqn. Time(s): 628        Sweeps: 5        Anode:Mono(Al (Mono))(150 W)   Step(meV): 100.0 
   Dwell Time(ms): 500        Charge Neutraliser :On   Acquired On :19/05/29 17:39:46
XPS
88
0
0
Mono(Al (Mono))
1486.69
150
1e+037
1e+037
641
641
1e+037
1e+037
FAT
20
1e+037
-4.5
0
1e+037
1e+037
1e+037
1e+037
F
1s
-1
Kinetic Energy
eV
790.19
0.1
2
Intensity
d
Transmission
d
pulse counting
0.5
5
0
1e+037
1e+037
1e+037
0
502
9392
10229
0.629651
0.63801
9459
0.63801
9438
0.637977
9589
0.637943
9634
0.63791
9467
0.637876
9559
0.637843
9602
0.63781
9563
0.637776
9612
0.637743
9735
0.637709
9613
0.637676
9527
0.637642
9490
0.637609
9569
0.637575
9584
0.637542
9686
0.637509
9598
0.637475
9588
0.637442
9587
0.637408
9481
0.637375
9506
0.637341
9660
0.637308
9580
0.637275
9609
0.637241
9533
0.637208
9473
0.637174
9568
0.637141
9507
0.637107
9523
0.637074
9499
0.63704
9625
0.637007
9564
0.636974
9568
0.63694
9419
0.636907
9505
0.636873
9485
0.63684
9401
0.636806
9520
0.636773
9509
0.63674
9542
0.636706
9479
0.636673
9474
0.636639
9592
0.636606
9495
0.636572
9611
0.636539
9538
0.636505
9677
0.636472
9613
0.636439
9613
0.636405
9630
0.636372
9604
0.636338
9593
0.636305
9569
0.636271
9465
0.636238
9637
0.636205
9552
0.636171
9572
0.636138
9552
0.636104
9548
0.636071
9540
0.636037
9563
0.636004
9402
0.635971
9570
0.635937
9726
0.635904
9601
0.63587
9612
0.635837
9574
0.635803
9440
0.63577
9509
0.635736
9557
0.635703
9574
0.63567
9649
0.635636
9591
0.635603
9488
0.635569
9392
0.635536
9568
0.635502
9500
0.635469
9657
0.635436
9619
0.635402
9420
0.635369
9538
0.635335
9723
0.635302
9777
0.635268
9646
0.635235
9418
0.635201
9521
0.635168
9523
0.635135
9413
0.635101
9634
0.635068
9609
0.635034
9662
0.635001
9661
0.634967
9651
0.634934
9534
0.634901
9591
0.634867
9612
0.634834
9503
0.6348
9578
0.634767
9773
0.634733
9622
0.6347
9625
0.634667
9686
0.634633
9800
0.6346
9746
0.634566
9795
0.634533
9842
0.634499
9846
0.634466
9658
0.634432
9821
0.634399
9870
0.634366
9960
0.634332
9712
0.634299
9624
0.634265
9665
0.634232
9777
0.634198
9758
0.634165
9610
0.634131
9674
0.634098
9695
0.634065
9673
0.634031
9625
0.633998
9807
0.633964
9847
0.633931
9659
0.633897
9791
0.633864
9919
0.633831
9786
0.633797
9731
0.633764
9959
0.63373
9927
0.633697
9870
0.633663
9901
0.63363
9879
0.633597
10016
0.633563
10024
0.63353
9945
0.633496
9899
0.633463
10009
0.633429
10059
0.633396
10001
0.633362
10192
0.633329
10064
0.633296
10127
0.633262
10090
0.633229
10111
0.633195
10098
0.633162
10229
0.633128
10116
0.633095
10010
0.633062
9924
0.633028
9885
0.632995
9865
0.632961
9833
0.632928
9928
0.632894
9874
0.632861
9797
0.632827
9753
0.632794
9747
0.632761
9807
0.632727
9728
0.632694
9762
0.63266
9782
0.632627
9716
0.632593
9658
0.63256
9657
0.632527
9621
0.632493
9488
0.63246
9513
0.632426
9577
0.632393
9616
0.632359
9612
0.632326
9710
0.632293
9662
0.632259
9529
0.632226
9609
0.632192
9741
0.632159
9703
0.632125
9561
0.632092
9660
0.632058
9638
0.632025
9619
0.631992
9747
0.631958
9643
0.631925
9645
0.631891
9715
0.631858
9546
0.631824
9649
0.631791
9682
0.631757
9572
0.631724
9586
0.631691
9712
0.631657
9618
0.631624
9547
0.63159
9497
0.631557
9696
0.631523
9670
0.63149
9638
0.631457
9687
0.631423
9699
0.63139
9728
0.631356
9726
0.631323
9672
0.631289
9637
0.631256
9695
0.631223
9772
0.631189
9706
0.631156
9614
0.631122
9662
0.631089
9649
0.631055
9617
0.631022
9489
0.630988
9442
0.630955
9656
0.630922
9576
0.630888
9623
0.630855
9705
0.630821
9676
0.630788
9663
0.630754
9633
0.630721
9505
0.630688
9553
0.630654
9565
0.630621
9627
0.630587
9717
0.630554
9627
0.63052
9642
0.630487
9583
0.630453
9628
0.63042
9554
0.630387
9508
0.630353
9585
0.63032
9653
0.630286
9742
0.630253
9736
0.630219
9689
0.630186
9693
0.630153
9649
0.630119
9670
0.630086
9610
0.630052
9581
0.630019
9572
0.629985
9578
0.629952
9694
0.629919
9773
0.629885
9725
0.629852
9737
0.629818
9611
0.629785
9703
0.629751
9677
0.629718
9634
0.629684
9672
0.629651
O 1s/3
Not Specified
2019
5
29
17
39
46
0
9
Casa Info Follows
1
Calib M = 282.249 A = 285 BE ADD
0
0
0
   XPS     Spectrum    Lens Mode:Hybrid   Resolution:Pass energy 20    Iris(Aper):slot(SLOT)
   Acqn. Time(s): 628        Sweeps: 5        Anode:Mono(Al (Mono))(150 W)   Step(meV): 100.0 
   Dwell Time(ms): 500        Charge Neutraliser :On   Acquired On :19/05/29 17:39:46
XPS
88
0
0
Mono(Al (Mono))
1486.69
150
1e+037
1e+037
641
641
1e+037
1e+037
FAT
20
1e+037
-4.5
0
1e+037
1e+037
1e+037
1e+037
O
1s
-1
Kinetic Energy
eV
943.19
0.1
2
Intensity
d
Transmission
d
pulse counting
0.5
5
0
1e+037
1e+037
1e+037
0
502
5173
40450
0.586704
0.592542
8504
0.592542
8455
0.592519
8542
0.592495
8396
0.592472
8557
0.592449
8549
0.592425
8533
0.592402
8556
0.592379
8466
0.592355
8372
0.592332
8491
0.592309
8523
0.592285
8497
0.592262
8520
0.592238
8573
0.592215
8721
0.592192
8630
0.592168
8696
0.592145
8526
0.592122
8655
0.592098
8663
0.592075
8685
0.592052
8539
0.592028
8575
0.592005
8609
0.591982
8601
0.591958
8582
0.591935
8729
0.591912
8606
0.591888
8455
0.591865
8354
0.591841
8391
0.591818
8270
0.591795
8392
0.591771
8346
0.591748
8437
0.591725
8420
0.591701
8346
0.591678
8387
0.591655
8325
0.591631
8158
0.591608
8232
0.591585
8327
0.591561
8301
0.591538
8247
0.591515
8285
0.591491
8138
0.591468
8179
0.591444
8255
0.591421
8245
0.591398
8214
0.591374
8227
0.591351
8174
0.591328
8183
0.591304
8033
0.591281
8030
0.591258
8053
0.591234
7904
0.591211
7911
0.591188
7817
0.591164
7636
0.591141
7631
0.591118
7593
0.591094
7422
0.591071
7393
0.591048
7465
0.591024
7275
0.591001
7398
0.590977
7291
0.590954
7035
0.590931
7044
0.590907
7055
0.590884
7091
0.590861
7013
0.590837
6954
0.590814
6824
0.590791
6975
0.590767
6985
0.590744
7039
0.590721
6895
0.590697
6932
0.590674
6820
0.590651
7018
0.590627
6995
0.590604
6927
0.59058
6817
0.590557
6797
0.590534
6860
0.59051
6878
0.590487
6805
0.590464
6913
0.59044
6941
0.590417
6806
0.590394
6744
0.59037
6843
0.590347
6820
0.590324
6886
0.5903
6827
0.590277
6892
0.590254
6749
0.59023
6870
0.590207
6736
0.590183
6870
0.59016
6861
0.590137
6894
0.590113
7042
0.59009
6927
0.590067
7033
0.590043
6955
0.59002
7007
0.589997
7177
0.589973
7064
0.58995
7047
0.589927
7089
0.589903
7331
0.58988
7227
0.589857
7330
0.589833
7518
0.58981
7653
0.589787
7873
0.589763
7970
0.58974
8153
0.589716
8377
0.589693
8571
0.58967
8958
0.589646
9499
0.589623
9777
0.5896
10146
0.589576
10793
0.589553
11265
0.58953
12057
0.589506
12804
0.589483
13537
0.58946
14305
0.589436
15068
0.589413
15941
0.58939
16829
0.589366
17381
0.589343
18096
0.589319
18980
0.589296
19378
0.589273
19765
0.589249
19843
0.589226
20036
0.589203
20333
0.589179
20319
0.589156
19931
0.589133
20049
0.589109
19966
0.589086
19394
0.589063
19280
0.589039
19309
0.589016
19352
0.588993
19394
0.588969
19974
0.588946
20387
0.588923
21149
0.588899
22567
0.588876
24047
0.588852
26099
0.588829
28626
0.588806
31272
0.588782
34104
0.588759
36491
0.588736
38677
0.588712
40026
0.588689
40450
0.588666
39669
0.588642
37398
0.588619
34168
0.588596
30362
0.588572
25743
0.588549
21737
0.588526
17787
0.588502
14488
0.588479
11971
0.588455
10142
0.588432
8849
0.588409
7957
0.588385
7215
0.588362
6862
0.588339
6571
0.588315
6344
0.588292
6147
0.588269
5994
0.588245
5995
0.588222
5855
0.588199
5869
0.588175
5811
0.588152
5804
0.588129
5769
0.588105
5578
0.588082
5620
0.588058
5610
0.588035
5591
0.588012
5481
0.587988
5493
0.587965
5555
0.587942
5526
0.587918
5400
0.587895
5440
0.587872
5404
0.587848
5418
0.587825
5349
0.587802
5375
0.587778
5284
0.587755
5294
0.587732
5322
0.587708
5286
0.587685
5401
0.587662
5279
0.587638
5332
0.587615
5346
0.587591
5309
0.587568
5368
0.587545
5300
0.587521
5414
0.587498
5342
0.587475
5355
0.587451
5322
0.587428
5306
0.587405
5174
0.587381
5322
0.587358
5438
0.587335
5295
0.587311
5357
0.587288
5340
0.587265
5364
0.587241
5322
0.587218
5272
0.587195
5332
0.587171
5268
0.587148
5211
0.587124
5261
0.587101
5302
0.587078
5269
0.587054
5290
0.587031
5276
0.587008
5173
0.586984
5314
0.586961
5198
0.586938
5248
0.586914
5266
0.586891
5310
0.586868
5329
0.586844
5218
0.586821
5202
0.586797
5201
0.586774
5193
0.586751
5208
0.586727
5272
0.586704
Ti 2p/4
Not Specified
2019
5
29
17
39
46
0
9
Casa Info Follows
1
Calib M = 282.249 A = 285 BE ADD
0
0
0
   XPS     Spectrum    Lens Mode:Hybrid   Resolution:Pass energy 20    Iris(Aper):slot(SLOT)
   Acqn. Time(s): 628        Sweeps: 5        Anode:Mono(Al (Mono))(150 W)   Step(meV): 100.0 
   Dwell Time(ms): 500        Charge Neutraliser :On   Acquired On :19/05/29 17:39:46
XPS
88
0
0
Mono(Al (Mono))
1486.69
150
1e+037
1e+037
641
641
1e+037
1e+037
FAT
20
1e+037
-4.5
0
1e+037
1e+037
1e+037
1e+037
Ti
2p
-1
Kinetic Energy
eV
1014.19
0.1
2
Intensity
d
Transmission
d
pulse counting
0.5
5
0
1e+037
1e+037
1e+037
0
502
904
29479
0.570424
0.575962
5020
0.575962
5108
0.575939
5126
0.575916
5044
0.575892
4937
0.575869
5108
0.575845
5079
0.575822
5102
0.575799
5195
0.575775
5121
0.575752
5123
0.575729
5138
0.575705
5222
0.575682
5157
0.575659
5171
0.575635
5313
0.575612
5372
0.575589
5417
0.575565
5476
0.575542
5485
0.575519
5597
0.575495
5705
0.575472
5650
0.575449
5641
0.575425
5788
0.575402
5966
0.575378
5895
0.575355
5995
0.575332
6057
0.575308
6016
0.575285
6108
0.575262
6139
0.575238
6257
0.575215
6243
0.575192
6157
0.575168
6145
0.575145
6088
0.575122
6121
0.575098
6012
0.575075
5918
0.575052
5894
0.575028
5684
0.575005
5533
0.574982
5401
0.574958
5234
0.574935
5345
0.574911
5216
0.574888
5079
0.574865
4897
0.574841
4827
0.574818
4770
0.574795
4628
0.574771
4641
0.574748
4589
0.574725
4562
0.574701
4466
0.574678
4342
0.574655
4266
0.574631
4340
0.574608
4222
0.574584
4098
0.574561
3969
0.574538
3917
0.574514
3930
0.574491
3973
0.574468
3878
0.574444
3952
0.574421
3966
0.574398
3864
0.574374
3880
0.574351
3857
0.574328
3813
0.574304
3805
0.574281
3906
0.574258
3874
0.574234
3903
0.574211
3952
0.574188
3955
0.574164
3891
0.574141
3931
0.574117
3998
0.574094
4001
0.574071
4107
0.574047
4077
0.574024
4081
0.574001
4273
0.573977
4186
0.573954
4216
0.573931
4374
0.573907
4514
0.573884
4534
0.573861
4692
0.573837
4747
0.573814
5001
0.573791
5280
0.573767
5446
0.573744
5699
0.573721
5886
0.573697
6202
0.573674
6549
0.57365
7008
0.573627
7519
0.573604
8025
0.57358
8380
0.573557
9089
0.573534
9674
0.57351
9953
0.573487
10337
0.573464
10803
0.57344
10915
0.573417
10936
0.573394
11025
0.57337
10912
0.573347
10640
0.573323
10325
0.5733
9951
0.573277
9417
0.573253
8747
0.57323
8288
0.573207
7825
0.573183
7187
0.57316
6686
0.573137
6232
0.573113
5695
0.57309
5332
0.573067
5132
0.573043
4846
0.57302
4722
0.572997
4448
0.572973
4392
0.57295
4160
0.572927
4086
0.572903
4079
0.57288
3975
0.572856
4000
0.572833
3928
0.57281
3996
0.572786
4006
0.572763
3952
0.57274
3976
0.572716
3957
0.572693
3979
0.57267
4045
0.572646
4069
0.572623
4019
0.5726
4056
0.572576
4084
0.572553
4182
0.57253
4227
0.572506
4372
0.572483
4606
0.572459
4675
0.572436
4805
0.572413
5074
0.572389
5347
0.572366
5775
0.572343
6437
0.572319
7015
0.572296
7980
0.572273
9152
0.572249
10730
0.572226
12465
0.572203
14581
0.572179
17217
0.572156
20206
0.572133
23468
0.572109
26217
0.572086
28218
0.572062
29479
0.572039
29222
0.572016
27542
0.571992
24787
0.571969
20717
0.571946
16675
0.571922
12727
0.571899
9382
0.571876
7091
0.571852
5336
0.571829
4153
0.571806
3361
0.571782
2921
0.571759
2620
0.571736
2347
0.571712
2179
0.571689
2085
0.571666
1939
0.571642
1771
0.571619
1722
0.571595
1663
0.571572
1576
0.571549
1484
0.571525
1436
0.571502
1368
0.571479
1359
0.571455
1313
0.571432
1309
0.571409
1262
0.571385
1278
0.571362
1203
0.571339
1145
0.571315
1195
0.571292
1148
0.571269
1104
0.571245
1100
0.571222
1105
0.571198
1063
0.571175
1079
0.571152
1065
0.571128
1028
0.571105
968
0.571088
1051
0.571072
1018
0.571056
1050
0.57104
1038
0.571024
955
0.571007
947
0.570991
978
0.570975
976
0.570959
1016
0.570943
1042
0.570926
1017
0.57091
976
0.570894
1008
0.570878
949
0.570862
1004
0.570845
1038
0.570829
977
0.570813
946
0.570797
978
0.570781
943
0.570764
969
0.570748
951
0.570732
936
0.570716
945
0.5707
977
0.570683
956
0.570667
951
0.570651
973
0.570635
931
0.570619
919
0.570602
936
0.570586
904
0.57057
914
0.570554
957
0.570538
943
0.570521
981
0.570505
905
0.570489
972
0.570473
984
0.570457
938
0.57044
915
0.570424
K 2p/5
Not Specified
2019
5
29
17
39
46
0
9
Casa Info Follows
1
Calib M = 282.249 A = 285 BE ADD
0
0
0
   XPS     Spectrum    Lens Mode:Hybrid   Resolution:Pass energy 20    Iris(Aper):slot(SLOT)
   Acqn. Time(s): 502        Sweeps: 5        Anode:Mono(Al (Mono))(150 W)   Step(meV): 100.0 
   Dwell Time(ms): 500        Charge Neutraliser :On   Acquired On :19/05/29 17:39:46
XPS
88
0
0
Mono(Al (Mono))
1486.69
150
1e+037
1e+037
641
641
1e+037
1e+037
FAT
20
1e+037
-4.5
0
1e+037
1e+037
1e+037
1e+037
K
2p
-1
Kinetic Energy
eV
1184.69
0.1
2
Intensity
d
Transmission
d
pulse counting
0.5
5
0
1e+037
1e+037
1e+037
0
402
939
2059
0.543607
0.546848
1017
0.546848
1006
0.546832
1052
0.546816
1056
0.546799
1059
0.546783
1057
0.546767
1034
0.546751
992
0.546735
1007
0.546718
1035
0.546702
1002
0.546686
1066
0.54667
1082
0.546654
991
0.546637
1027
0.546621
1025
0.546605
1034
0.546589
1035
0.546573
1001
0.546556
1026
0.54654
1067
0.546524
1039
0.546508
1041
0.546492
1018
0.546475
1037
0.546459
1059
0.546443
1019
0.546427
983
0.546411
996
0.546394
977
0.546378
996
0.546362
952
0.546346
1003
0.546329
996
0.546313
1015
0.546297
1007
0.546281
965
0.546265
964
0.546248
1001
0.546232
984
0.546216
996
0.5462
1026
0.546184
1005
0.546167
1039
0.546151
1011
0.546135
977
0.546119
1045
0.546103
1023
0.546086
1025
0.54607
1006
0.546054
1021
0.546038
1009
0.546022
974
0.546005
985
0.545989
1025
0.545973
1011
0.545957
963
0.545941
1011
0.545924
1026
0.545908
1017
0.545892
1016
0.545876
1015
0.54586
1051
0.545843
1014
0.545827
1010
0.545811
1058
0.545795
1012
0.545779
1008
0.545762
975
0.545746
1005
0.54573
943
0.545714
978
0.545698
987
0.545681
979
0.545665
960
0.545649
973
0.545633
1001
0.545617
969
0.5456
1007
0.545584
987
0.545568
996
0.545552
1016
0.545536
1003
0.545519
999
0.545503
1005
0.545487
996
0.545471
968
0.545455
951
0.545438
1024
0.545422
978
0.545406
1051
0.54539
1016
0.545373
1004
0.545357
979
0.545341
946
0.545325
1014
0.545309
965
0.545292
1010
0.545276
995
0.54526
939
0.545244
974
0.545228
947
0.545211
947
0.545195
986
0.545179
1050
0.545163
1010
0.545147
943
0.54513
975
0.545114
945
0.545098
958
0.545082
945
0.545066
973
0.545049
997
0.545033
967
0.545017
940
0.545001
991
0.544985
987
0.544968
1031
0.544952
982
0.544936
1004
0.54492
987
0.544904
943
0.544887
993
0.544871
1006
0.544855
950
0.544839
1004
0.544823
1025
0.544806
986
0.54479
1013
0.544774
1012
0.544758
1018
0.544742
1057
0.544725
976
0.544709
1015
0.544693
1031
0.544677
961
0.544661
948
0.544644
982
0.544628
1006
0.544612
1042
0.544596
1013
0.54458
1030
0.544563
1034
0.544547
1026
0.544531
1038
0.544515
1093
0.544499
1054
0.544482
1096
0.544466
1096
0.54445
1109
0.544434
1145
0.544417
1186
0.544401
1210
0.544385
1167
0.544369
1159
0.544353
1156
0.544336
1143
0.54432
1172
0.544304
1241
0.544288
1184
0.544272
1196
0.544255
1234
0.544239
1238
0.544223
1193
0.544207
1149
0.544191
1190
0.544174
1207
0.544158
1179
0.544142
1193
0.544126
1229
0.54411
1242
0.544093
1328
0.544077
1390
0.544061
1391
0.544045
1475
0.544029
1570
0.544012
1605
0.543996
1667
0.54398
1718
0.543964
1817
0.543948
1856
0.543931
1906
0.543915
1922
0.543899
1998
0.543883
2004
0.543867
2059
0.54385
2051
0.543834
1982
0.543818
2007
0.543802
1962
0.543786
1927
0.543769
1827
0.543753
1809
0.543737
1766
0.543721
1779
0.543705
1717
0.543688
1621
0.543672
1712
0.543656
1661
0.54364
1535
0.543624
1503
0.543607
C 1s/6
Not Specified
2019
5
29
17
39
46
0
9
Casa Info Follows
1
Calib M = 282.249 A = 285 BE ADD
0
0
0
   XPS     Spectrum    Lens Mode:Hybrid   Resolution:Pass energy 20    Iris(Aper):slot(SLOT)
   Acqn. Time(s): 628        Sweeps: 5        Anode:Mono(Al (Mono))(150 W)   Step(meV): 100.0 
   Dwell Time(ms): 500        Charge Neutraliser :On   Acquired On :19/05/29 17:39:46
XPS
88
0
0
Mono(Al (Mono))
1486.69
150
1e+037
1e+037
641
641
1e+037
1e+037
FAT
20
1e+037
-4.5
0
1e+037
1e+037
1e+037
1e+037
C
1s
-1
Kinetic Energy
eV
1189.19
0.1
2
Intensity
d
Transmission
d
pulse counting
0.5
5
0
1e+037
1e+037
1e+037
0
502
859
2038
0.542068
0.546119
973
0.546119
949
0.546103
994
0.546086
1015
0.54607
1014
0.546054
985
0.546038
977
0.546022
980
0.546005
968
0.545989
1057
0.545973
966
0.545957
993
0.545941
990
0.545924
1032
0.545908
1013
0.545892
960
0.545876
1039
0.54586
996
0.545843
1019
0.545827
989
0.545811
1029
0.545795
1012
0.545779
1015
0.545762
962
0.545746
910
0.54573
961
0.545714
1017
0.545698
1000
0.545681
973
0.545665
999
0.545649
957
0.545633
981
0.545617
959
0.5456
975
0.545584
999
0.545568
985
0.545552
947
0.545536
996
0.545519
1026
0.545503
991
0.545487
960
0.545471
980
0.545455
943
0.545438
990
0.545422
1002
0.545406
1022
0.54539
995
0.545373
980
0.545357
970
0.545341
1006
0.545325
965
0.545309
957
0.545292
994
0.545276
1013
0.54526
970
0.545244
1034
0.545228
946
0.545211
964
0.545195
965
0.545179
948
0.545163
995
0.545147
975
0.54513
967
0.545114
1007
0.545098
1000
0.545082
999
0.545066
977
0.545049
973
0.545033
970
0.545017
971
0.545001
1002
0.544985
982
0.544968
1009
0.544952
1046
0.544936
991
0.54492
980
0.544904
986
0.544887
1038
0.544871
1023
0.544855
998
0.544839
976
0.544823
949
0.544806
946
0.54479
948
0.544774
1020
0.544758
974
0.544742
1002
0.544725
977
0.544709
990
0.544693
1024
0.544677
1038
0.544661
968
0.544644
995
0.544628
971
0.544612
1003
0.544596
967
0.54458
960
0.544563
1023
0.544547
1027
0.544531
1089
0.544515
1080
0.544499
1085
0.544482
1116
0.544466
1062
0.54445
1057
0.544434
1105
0.544417
1130
0.544401
1180
0.544385
1183
0.544369
1204
0.544353
1233
0.544336
1196
0.54432
1200
0.544304
1198
0.544288
1168
0.544272
1215
0.544255
1213
0.544239
1210
0.544223
1195
0.544207
1185
0.544191
1229
0.544174
1205
0.544158
1183
0.544142
1262
0.544126
1257
0.54411
1244
0.544093
1298
0.544077
1347
0.544061
1360
0.544045
1446
0.544029
1475
0.544012
1547
0.543996
1673
0.54398
1704
0.543964
1792
0.543948
1852
0.543931
1926
0.543915
1954
0.543899
2038
0.543883
2027
0.543867
1927
0.54385
2004
0.543834
2004
0.543818
2007
0.543802
1984
0.543786
1896
0.543769
1887
0.543753
1789
0.543737
1795
0.543721
1811
0.543705
1767
0.543688
1707
0.543672
1720
0.543656
1636
0.54364
1642
0.543624
1595
0.543607
1527
0.543591
1446
0.543575
1365
0.543559
1330
0.543543
1342
0.543526
1260
0.54351
1187
0.543494
1160
0.543478
1179
0.543461
1109
0.543445
1018
0.543429
1006
0.543413
1001
0.543397
966
0.54338
971
0.543364
954
0.543348
983
0.543332
976
0.543316
964
0.543299
967
0.543283
928
0.543267
942
0.543251
933
0.543235
957
0.543218
897
0.543202
942
0.543186
969
0.54317
927
0.543154
912
0.543137
930
0.543121
944
0.543105
915
0.543089
966
0.543073
937
0.543056
942
0.54304
968
0.543024
969
0.543008
956
0.542992
890
0.542975
905
0.542959
927
0.542943
932
0.542927
908
0.542911
934
0.542894
886
0.542878
927
0.542862
944
0.542846
965
0.54283
921
0.542813
912
0.542797
918
0.542781
894
0.542765
916
0.542749
1005
0.542732
967
0.542716
882
0.5427
956
0.542684
940
0.542668
934
0.542651
983
0.542635
951
0.542619
957
0.542603
921
0.542586
873
0.54257
962
0.542554
945
0.542538
968
0.542522
940
0.542505
949
0.542489
946
0.542473
897
0.542457
942
0.542441
938
0.542424
955
0.542408
882
0.542392
934
0.542376
954
0.54236
980
0.542343
913
0.542327
970
0.542311
927
0.542295
859
0.542279
918
0.542262
917
0.542246
971
0.54223
941
0.542214
877
0.542198
935
0.542181
966
0.542165
932
0.542149
945
0.542133
994
0.542117
923
0.5421
927
0.542084
915
0.542068
Cl 2p/7
Not Specified
2019
5
29
17
39
46
0
9
Casa Info Follows
1
Calib M = 282.249 A = 285 BE ADD
0
0
0
   XPS     Spectrum    Lens Mode:Hybrid   Resolution:Pass energy 20    Iris(Aper):slot(SLOT)
   Acqn. Time(s): 502        Sweeps: 5        Anode:Mono(Al (Mono))(150 W)   Step(meV): 100.0 
   Dwell Time(ms): 500        Charge Neutraliser :On   Acquired On :19/05/29 17:39:46
XPS
88
0
0
Mono(Al (Mono))
1486.69
150
1e+037
1e+037
641
641
1e+037
1e+037
FAT
20
1e+037
-4.5
0
1e+037
1e+037
1e+037
1e+037
Cl
2p
-1
Kinetic Energy
eV
1276.69
0.1
2
Intensity
d
Transmission
d
pulse counting
0.5
5
0
1e+037
1e+037
1e+037
0
402
877
1170
0.521545
0.527141
1020
0.527141
962
0.527113
928
0.527085
1002
0.527057
933
0.52703
957
0.527002
933
0.526974
907
0.526946
953
0.526918
965
0.52689
948
0.526862
934
0.526834
991
0.526806
980
0.526778
975
0.52675
1001
0.526722
925
0.526694
972
0.526666
965
0.526638
1021
0.52661
982
0.526582
933
0.526554
962
0.526526
969
0.526498
974
0.52647
985
0.526442
985
0.526414
978
0.526386
985
0.526358
950
0.52633
942
0.526302
1010
0.526274
975
0.526246
906
0.526218
954
0.52619
942
0.526162
963
0.526134
964
0.526106
942
0.526078
962
0.52605
946
0.526022
903
0.525994
950
0.525966
990
0.525938
997
0.52591
948
0.525882
929
0.525854
925
0.525826
978
0.525798
951
0.52577
983
0.525742
976
0.525714
971
0.525686
966
0.525658
932
0.52563
984
0.525602
964
0.525575
989
0.525547
965
0.525519
923
0.525491
949
0.525463
975
0.525435
951
0.525407
956
0.525379
934
0.525351
1018
0.525323
1062
0.525295
945
0.525267
959
0.525239
998
0.525211
953
0.525183
961
0.525155
975
0.525127
990
0.525099
969
0.525071
941
0.525043
998
0.525015
988
0.524987
954
0.524959
946
0.524931
1016
0.524903
944
0.524875
987
0.524847
948
0.524819
953
0.524791
957
0.524763
898
0.524735
971
0.524707
885
0.524679
929
0.524651
964
0.524623
983
0.524595
942
0.524567
913
0.524539
991
0.524511
935
0.524483
953
0.524455
949
0.524427
973
0.524399
986
0.524371
951
0.524343
979
0.524315
989
0.524287
991
0.524259
993
0.524231
996
0.524203
979
0.524175
877
0.524147
979
0.524119
1017
0.524092
988
0.524064
1022
0.524036
958
0.524008
973
0.52398
1062
0.523952
998
0.523924
979
0.523896
1044
0.523868
1054
0.52384
1040
0.523812
1034
0.523784
1039
0.523756
1056
0.523728
1045
0.5237
1054
0.523672
1063
0.523644
1052
0.523616
1115
0.523588
1072
0.52356
1066
0.523532
1123
0.523504
1097
0.523476
1139
0.523448
1097
0.52342
1081
0.523392
1115
0.523364
1107
0.523336
1142
0.523308
1149
0.52328
1128
0.523252
1116
0.523224
1170
0.523196
1158
0.523168
1114
0.52314
1157
0.523112
1164
0.523084
1147
0.523056
1122
0.523028
1109
0.523
1050
0.522972
1070
0.522944
1020
0.522916
1095
0.522888
1069
0.52286
1016
0.522832
1003
0.522804
1031
0.522776
1001
0.522748
1014
0.52272
933
0.522692
945
0.522664
976
0.522637
976
0.522609
957
0.522581
971
0.522553
974
0.522525
971
0.522497
991
0.522469
974
0.522441
964
0.522413
921
0.522385
991
0.522357
1004
0.522329
951
0.522301
974
0.522273
972
0.522245
997
0.522217
944
0.522189
960
0.522161
965
0.522133
988
0.522105
981
0.522077
964
0.522049
979
0.522021
954
0.521993
984
0.521965
904
0.521937
965
0.521909
934
0.521881
992
0.521853
1011
0.521825
982
0.521797
1004
0.521769
992
0.521741
971
0.521713
1031
0.521685
1000
0.521657
971
0.521629
957
0.521601
957
0.521573
962
0.521545
S 2p/8
Not Specified
2019
5
29
17
39
46
0
9
Casa Info Follows
1
Calib M = 282.249 A = 285 BE ADD
0
0
0
   XPS     Spectrum    Lens Mode:Hybrid   Resolution:Pass energy 20    Iris(Aper):slot(SLOT)
   Acqn. Time(s): 502        Sweeps: 5        Anode:Mono(Al (Mono))(150 W)   Step(meV): 100.0 
   Dwell Time(ms): 500        Charge Neutraliser :On   Acquired On :19/05/29 17:39:46
XPS
88
0
0
Mono(Al (Mono))
1486.69
150
1e+037
1e+037
641
641
1e+037
1e+037
FAT
20
1e+037
-4.5
0
1e+037
1e+037
1e+037
1e+037
S
2p
-1
Kinetic Energy
eV
1311.69
0.1
2
Intensity
d
Transmission
d
pulse counting
0.5
5
0
1e+037
1e+037
1e+037
0
402
897
1269
0.511577
0.517348
963
0.517348
991
0.51732
969
0.517292
1028
0.517264
972
0.517236
982
0.517208
1005
0.51718
984
0.517152
1013
0.517124
997
0.517096
1003
0.517068
941
0.51704
974
0.517012
982
0.516984
990
0.516956
1005
0.516928
1001
0.5169
970
0.516872
991
0.516844
974
0.516816
959
0.516788
1002
0.516761
973
0.516733
995
0.516705
1008
0.516677
1013
0.516649
1006
0.516621
1065
0.516593
1013
0.516565
991
0.516537
966
0.516509
960
0.516481
964
0.516453
978
0.516425
1008
0.516397
955
0.516369
970
0.516341
988
0.516313
975
0.516285
989
0.516257
975
0.516229
990
0.516201
990
0.516173
1001
0.516145
967
0.516117
1000
0.516089
987
0.516061
981
0.516033
994
0.516005
996
0.515977
1003
0.515949
986
0.515921
989
0.515893
897
0.515865
970
0.515837
1027
0.515809
1013
0.515781
966
0.515753
975
0.515725
914
0.515697
1016
0.515669
992
0.515641
972
0.515613
1002
0.515585
1020
0.515557
999
0.515529
994
0.515501
996
0.515473
1078
0.515445
1059
0.515417
1012
0.515389
1064
0.515361
1085
0.515333
1044
0.515306
1134
0.515278
1099
0.51525
1135
0.515222
1145
0.515194
1177
0.515166
1183
0.515138
1149
0.51511
1176
0.515082
1217
0.515054
1231
0.515026
1227
0.514998
1261
0.51497
1237
0.514942
1222
0.514914
1211
0.514886
1237
0.514858
1269
0.51483
1219
0.514802
1194
0.514774
1160
0.514746
1136
0.514718
1113
0.51469
1144
0.514662
1077
0.514634
1076
0.514606
1064
0.514578
1083
0.51455
988
0.514522
1018
0.514494
999
0.514466
984
0.514438
967
0.51441
982
0.514382
984
0.514354
1016
0.514326
976
0.514298
959
0.51427
995
0.514242
1000
0.514214
991
0.514186
972
0.514158
994
0.51413
968
0.514102
1004
0.514074
964
0.514046
1012
0.514018
1002
0.51399
1021
0.513962
971
0.513934
994
0.513906
992
0.513878
976
0.513851
1005
0.513822
1026
0.513795
977
0.513767
1035
0.513739
1022
0.513711
982
0.513683
1008
0.513655
1001
0.513627
971
0.513599
1017
0.513571
986
0.513543
996
0.513515
1013
0.513487
974
0.513459
971
0.513431
1027
0.513403
999
0.513375
1045
0.513347
979
0.513319
1017
0.513291
1004
0.513263
939
0.513235
912
0.513207
1019
0.513179
976
0.513151
956
0.513123
963
0.513095
998
0.513067
986
0.513039
1043
0.513011
989
0.512983
1026
0.512955
972
0.512927
1022
0.512899
1024
0.512871
974
0.512843
1002
0.512815
1008
0.512787
947
0.512759
980
0.512731
958
0.512703
991
0.512675
988
0.512647
965
0.512619
995
0.512591
999
0.512563
1037
0.512535
1009
0.512507
1006
0.512479
990
0.512451
955
0.512423
1000
0.512396
991
0.512364
989
0.512329
970
0.512293
1022
0.512257
1048
0.512221
1016
0.512185
1013
0.51215
1000
0.512114
990
0.512078
1002
0.512042
1001
0.512006
953
0.511971
915
0.511935
1024
0.511899
982
0.511863
987
0.511827
1000
0.511792
1019
0.511756
1050
0.51172
1024
0.511684
966
0.511648
991
0.511612
985
0.511577
Si 2s/9
Not Specified
2019
5
29
17
39
46
0
9
Casa Info Follows
1
Calib M = 282.249 A = 285 BE ADD
0
0
0
   XPS     Spectrum    Lens Mode:Hybrid   Resolution:Pass energy 20    Iris(Aper):slot(SLOT)
   Acqn. Time(s): 878        Sweeps: 5        Anode:Mono(Al (Mono))(150 W)   Step(meV): 100.0 
   Dwell Time(ms): 500        Charge Neutraliser :On   Acquired On :19/05/29 17:39:46
XPS
88
0
0
Mono(Al (Mono))
1486.69
150
1e+037
1e+037
641
641
1e+037
1e+037
FAT
20
1e+037
-4.5
0
1e+037
1e+037
1e+037
1e+037
Si
2s
-1
Kinetic Energy
eV
1316.19
0.1
2
Intensity
d
Transmission
d
pulse counting
0.5
5
0
1e+037
1e+037
1e+037
0
702
917
1264
0.504595
0.516089
959
0.516089
987
0.516061
995
0.516033
1044
0.516005
973
0.515977
999
0.515949
1035
0.515921
975
0.515893
966
0.515865
995
0.515837
967
0.515809
979
0.515781
1000
0.515753
1040
0.515725
963
0.515697
974
0.515669
998
0.515641
985
0.515613
1031
0.515585
1019
0.515557
1010
0.515529
1016
0.515501
1020
0.515473
1043
0.515445
1114
0.515417
1100
0.515389
1088
0.515361
1124
0.515333
1126
0.515306
1113
0.515278
1128
0.51525
1141
0.515222
1186
0.515194
1192
0.515166
1217
0.515138
1163
0.51511
1231
0.515082
1218
0.515054
1218
0.515026
1211
0.514998
1228
0.51497
1181
0.514942
1235
0.514914
1264
0.514886
1206
0.514858
1187
0.51483
1181
0.514802
1203
0.514774
1179
0.514746
1109
0.514718
1168
0.51469
1084
0.514662
1120
0.514634
1071
0.514606
1057
0.514578
1050
0.51455
1065
0.514522
1033
0.514494
983
0.514466
1021
0.514438
1071
0.51441
991
0.514382
1005
0.514354
1043
0.514326
965
0.514298
963
0.51427
1033
0.514242
989
0.514214
983
0.514186
953
0.514158
959
0.51413
961
0.514102
999
0.514074
968
0.514046
959
0.514018
978
0.51399
933
0.513962
981
0.513934
1000
0.513906
980
0.513878
1007
0.513851
975
0.513822
986
0.513795
951
0.513767
980
0.513739
977
0.513711
1011
0.513683
985
0.513655
961
0.513627
978
0.513599
1023
0.513571
1012
0.513543
979
0.513515
981
0.513487
977
0.513459
1007
0.513431
1032
0.513403
963
0.513375
1025
0.513347
986
0.513319
1011
0.513291
1011
0.513263
1020
0.513235
970
0.513207
1042
0.513179
1019
0.513151
945
0.513123
960
0.513095
917
0.513067
992
0.513039
966
0.513011
988
0.512983
1024
0.512955
1032
0.512927
1019
0.512899
967
0.512871
1001
0.512843
1021
0.512815
1013
0.512787
1036
0.512759
964
0.512731
996
0.512703
963
0.512675
967
0.512647
1003
0.512619
968
0.512591
1043
0.512563
978
0.512535
1005
0.512507
1017
0.512479
1026
0.512451
1037
0.512423
968
0.512396
994
0.512364
1030
0.512329
1018
0.512293
1019
0.512257
1042
0.512221
981
0.512185
990
0.51215
997
0.512114
1007
0.512078
996
0.512042
1019
0.512006
985
0.511971
1026
0.511935
1015
0.511899
970
0.511863
1006
0.511827
1021
0.511792
1020
0.511756
960
0.51172
978
0.511684
1011
0.511648
953
0.511612
966
0.511577
1008
0.511541
1030
0.511505
1025
0.511469
977
0.511433
987
0.511398
1008
0.511362
1010
0.511326
996
0.51129
1009
0.511254
1021
0.511219
988
0.511183
1014
0.511147
1039
0.511111
1014
0.511075
1000
0.51104
996
0.511004
1020
0.510968
1025
0.510932
937
0.510896
975
0.510861
978
0.510825
988
0.510789
1003
0.510753
1031
0.510717
997
0.510682
1034
0.510646
1001
0.51061
1048
0.510574
1033
0.510538
1025
0.510503
994
0.510467
1039
0.510431
1035
0.510395
1004
0.510359
1036
0.510324
1009
0.510288
1024
0.510252
1035
0.510216
1024
0.51018
1091
0.510145
1046
0.510109
992
0.510073
1038
0.510037
1019
0.510001
990
0.509965
1071
0.50993
1061
0.509894
1022
0.509858
1023
0.509822
1087
0.509786
1059
0.509751
1064
0.509715
1069
0.509679
1068
0.509643
1036
0.509607
1054
0.509572
1072
0.509536
1113
0.5095
1072
0.509464
1031
0.509428
982
0.509393
1036
0.509357
1037
0.509321
1018
0.509285
1074
0.509249
1043
0.509214
1010
0.509178
1027
0.509142
1031
0.509106
974
0.50907
971
0.509035
1012
0.508999
1059
0.508963
1086
0.508927
1039
0.508891
1029
0.508856
1053
0.50882
1030
0.508784
1017
0.508748
1089
0.508712
1033
0.508677
1055
0.508641
1056
0.508605
1009
0.508569
1007
0.508533
1020
0.508498
1058
0.508462
1002
0.508426
994
0.50839
1026
0.508354
1021
0.508318
1016
0.508283
1028
0.508247
1030
0.508211
1012
0.508175
1023
0.508139
1003
0.508104
1028
0.508068
1070
0.508032
1032
0.507996
1010
0.50796
1033
0.507925
1029
0.507889
1050
0.507853
1031
0.507817
1035
0.507781
1068
0.507746
1063
0.50771
1003
0.507674
1030
0.507638
1054
0.507602
1020
0.507567
1033
0.507531
1012
0.507495
1016
0.507459
1049
0.507423
1028
0.507388
1055
0.507352
1052
0.507316
1076
0.50728
1060
0.507244
1017
0.507209
1037
0.507173
1087
0.507137
1053
0.507101
1054
0.507065
1087
0.50703
1047
0.506994
1053
0.506958
1090
0.506922
1066
0.506886
1051
0.506851
1047
0.506815
1044
0.506779
1036
0.506743
1049
0.506707
1051
0.506671
1096
0.506636
1111
0.5066
1093
0.506564
1046
0.506528
1070
0.506492
1092
0.506457
1078
0.506421
993
0.506385
1047
0.506349
1088
0.506313
1110
0.506278
1063
0.506242
1037
0.506206
1030
0.50617
1035
0.506134
1033
0.506099
1052
0.506063
1063
0.506027
1052
0.505991
1068
0.505955
1057
0.50592
1085
0.505884
1142
0.505848
1067
0.505812
1044
0.505776
1064
0.505741
1034
0.505705
1052
0.505669
1052
0.505633
1078
0.505597
1062
0.505562
1048
0.505526
1079
0.50549
1096
0.505454
1058
0.505418
1056
0.505383
1094
0.505347
1073
0.505311
1041
0.505275
1025
0.505239
1060
0.505204
1042
0.505168
1104
0.505132
1079
0.505096
1049
0.50506
1050
0.505024
1053
0.504989
1002
0.504953
1086
0.504917
1060
0.504881
1073
0.504845
1113
0.50481
1100
0.504774
1122
0.504738
1091
0.504702
1074
0.504666
1123
0.504631
1073
0.504595
P 2p/10
Not Specified
2019
5
29
17
39
46
0
9
Casa Info Follows
1
Calib M = 282.249 A = 285 BE ADD
0
0
0
   XPS     Spectrum    Lens Mode:Hybrid   Resolution:Pass energy 20    Iris(Aper):slot(SLOT)
   Acqn. Time(s): 502        Sweeps: 5        Anode:Mono(Al (Mono))(150 W)   Step(meV): 100.0 
   Dwell Time(ms): 500        Charge Neutraliser :On   Acquired On :19/05/29 17:39:46
XPS
88
0
0
Mono(Al (Mono))
1486.69
150
1e+037
1e+037
641
641
1e+037
1e+037
FAT
20
1e+037
-4.5
0
1e+037
1e+037
1e+037
1e+037
P
2p
-1
Kinetic Energy
eV
1343.69
0.1
2
Intensity
d
Transmission
d
pulse counting
0.5
5
0
1e+037
1e+037
1e+037
0
402
958
1110
0.500119
0.50728
1093
0.50728
1029
0.507244
1059
0.507209
976
0.507173
1066
0.507137
1025
0.507101
1073
0.507065
1071
0.50703
1053
0.506994
1013
0.506958
1023
0.506922
1021
0.506886
1076
0.506851
1088
0.506815
1092
0.506779
1095
0.506743
995
0.506707
1027
0.506671
1031
0.506636
1034
0.5066
1023
0.506564
971
0.506528
1033
0.506492
1071
0.506457
1072
0.506421
1072
0.506385
1045
0.506349
1043
0.506313
1031
0.506278
1053
0.506242
1059
0.506206
1035
0.50617
1057
0.506134
1092
0.506099
1078
0.506063
1022
0.506027
1025
0.505991
1013
0.505955
1059
0.50592
1076
0.505884
1064
0.505848
1087
0.505812
1092
0.505776
1043
0.505741
993
0.505705
1053
0.505669
1089
0.505633
1090
0.505597
1053
0.505562
1106
0.505526
1053
0.50549
1060
0.505454
1106
0.505418
1110
0.505383
1003
0.505347
1034
0.505311
1034
0.505275
1023
0.505239
1084
0.505204
1070
0.505168
1019
0.505132
1046
0.505096
1027
0.50506
1103
0.505024
1088
0.504989
1063
0.504953
1051
0.504917
1021
0.504881
1048
0.504845
1075
0.50481
1074
0.504774
1071
0.504738
1030
0.504702
1049
0.504666
1066
0.504631
1059
0.504595
1073
0.504559
1068
0.504523
1089
0.504487
1026
0.504452
1082
0.504416
1054
0.50438
1046
0.504344
1041
0.504308
1053
0.504273
1031
0.504237
1026
0.504201
1046
0.504165
1035
0.504129
1028
0.504094
1038
0.504058
1053
0.504022
1012
0.503986
995
0.50395
1073
0.503915
1012
0.503879
1092
0.503843
1090
0.503807
1070
0.503771
1082
0.503736
1038
0.5037
1047
0.503664
1000
0.503628
1076
0.503592
1028
0.503557
960
0.503521
1042
0.503485
1068
0.503449
1053
0.503413
1025
0.503377
1026
0.503342
1044
0.503306
1052
0.50327
1002
0.503234
1031
0.503199
991
0.503163
1045
0.503127
1047
0.503091
1031
0.503055
1060
0.503019
1049
0.502984
1035
0.502948
1020
0.502912
1038
0.502876
1014
0.50284
1029
0.502805
1063
0.502769
976
0.502733
1043
0.502697
1087
0.502661
1077
0.502626
1041
0.50259
1055
0.502554
1053
0.502518
1029
0.502482
1000
0.502447
1051
0.502411
1017
0.502375
988
0.502339
1006
0.502303
1051
0.502268
1018
0.502232
1030
0.502196
1034
0.50216
1006
0.502124
978
0.502089
1036
0.502053
1017
0.502017
1030
0.501981
1024
0.501945
986
0.50191
1017
0.501874
1029
0.501838
965
0.501802
1031
0.501766
1006
0.501731
989
0.501695
1039
0.501659
1023
0.501623
1035
0.501587
981
0.501552
1008
0.501516
1052
0.50148
1012
0.501444
979
0.501408
972
0.501373
1043
0.501337
1032
0.501301
1001
0.501265
1005
0.501229
981
0.501193
1008
0.501158
1018
0.501122
1012
0.501086
1013
0.50105
958
0.501014
1033
0.500979
1058
0.500943
1023
0.500907
1036
0.500871
1019
0.500835
1011
0.5008
1019
0.500764
1037
0.500728
1017
0.500692
987
0.500656
1032
0.500621
973
0.500585
1014
0.500549
969
0.500513
994
0.500477
1033
0.500442
1007
0.500406
994
0.50037
988
0.500334
1019
0.500298
1040
0.500263
1039
0.500227
1012
0.500191
967
0.500155
978
0.500119
Al 2s/11
Not Specified
2019
5
29
17
39
46
0
9
Casa Info Follows
1
Calib M = 282.249 A = 285 BE ADD
0
0
0
   XPS     Spectrum    Lens Mode:Hybrid   Resolution:Pass energy 20    Iris(Aper):slot(SLOT)
   Acqn. Time(s): 752        Sweeps: 5        Anode:Mono(Al (Mono))(150 W)   Step(meV): 100.0 
   Dwell Time(ms): 500        Charge Neutraliser :On   Acquired On :19/05/29 17:39:46
XPS
88
0
0
Mono(Al (Mono))
1486.69
150
1e+037
1e+037
641
641
1e+037
1e+037
FAT
20
1e+037
-4.5
0
1e+037
1e+037
1e+037
1e+037
Al
2s
-1
Kinetic Energy
eV
1353.69
0.1
2
Intensity
d
Transmission
d
pulse counting
0.5
5
0
1e+037
1e+037
1e+037
0
602
943
2621
0.492959
0.5037
1042
0.5037
1010
0.503664
1045
0.503628
1019
0.503592
1042
0.503557
991
0.503521
1030
0.503485
1007
0.503449
1012
0.503413
1030
0.503377
1083
0.503342
1046
0.503306
1035
0.50327
1048
0.503234
1061
0.503199
1056
0.503163
1018
0.503127
1029
0.503091
1040
0.503055
1025
0.503019
1031
0.502984
1048
0.502948
1008
0.502912
1015
0.502876
1055
0.50284
1052
0.502805
1004
0.502769
1026
0.502733
1035
0.502697
1001
0.502661
1040
0.502626
1050
0.50259
1020
0.502554
984
0.502518
1052
0.502482
1000
0.502447
1024
0.502411
999
0.502375
1009
0.502339
998
0.502303
1035
0.502268
1007
0.502232
1017
0.502196
1051
0.50216
1033
0.502124
1056
0.502089
991
0.502053
998
0.502017
1005
0.501981
981
0.501945
1057
0.50191
1047
0.501874
1028
0.501838
1006
0.501802
1063
0.501766
994
0.501731
990
0.501695
989
0.501659
1052
0.501623
990
0.501587
1050
0.501552
1003
0.501516
1047
0.50148
964
0.501444
984
0.501408
1015
0.501373
992
0.501337
967
0.501301
1039
0.501265
977
0.501229
950
0.501193
990
0.501158
1025
0.501122
1013
0.501086
943
0.50105
1035
0.501014
1022
0.500979
1058
0.500943
1001
0.500907
976
0.500871
1026
0.500835
1001
0.5008
1052
0.500764
1000
0.500728
980
0.500692
1040
0.500656
1017
0.500621
1057
0.500585
1026
0.500549
1012
0.500513
989
0.500477
1025
0.500442
975
0.500406
1008
0.50037
948
0.500334
1014
0.500298
1038
0.500263
1022
0.500227
1036
0.500191
972
0.500155
1003
0.500119
1020
0.500084
997
0.500048
1046
0.500012
999
0.499976
1008
0.49994
1014
0.499905
963
0.499869
1042
0.499833
1012
0.499797
998
0.499761
986
0.499725
1036
0.49969
1021
0.499654
1004
0.499618
1049
0.499582
1021
0.499546
989
0.499511
1026
0.499475
1012
0.499439
1029
0.499403
1057
0.499367
1042
0.499332
1015
0.499296
998
0.49926
1002
0.499224
1046
0.499188
1024
0.499153
990
0.499117
1055
0.499081
1038
0.499045
1116
0.499009
1082
0.498974
1091
0.498938
1071
0.498902
1076
0.498866
1118
0.49883
1093
0.498795
1130
0.498759
1152
0.498723
1142
0.498687
1169
0.498651
1158
0.498616
1199
0.49858
1253
0.498544
1295
0.498508
1334
0.498472
1350
0.498437
1353
0.498401
1436
0.498365
1475
0.498329
1632
0.498293
1634
0.498258
1693
0.498222
1739
0.498186
1890
0.49815
1916
0.498114
2102
0.498078
2193
0.498043
2252
0.498007
2270
0.497971
2390
0.497935
2436
0.497899
2391
0.497864
2547
0.497828
2621
0.497792
2539
0.497756
2610
0.49772
2480
0.497685
2353
0.497649
2275
0.497613
2270
0.497577
2203
0.497541
1932
0.497506
1854
0.49747
1764
0.497434
1675
0.497398
1616
0.497362
1532
0.497327
1426
0.497291
1391
0.497255
1394
0.497219
1296
0.497183
1215
0.497148
1197
0.497112
1183
0.497076
1160
0.49704
1052
0.497004
1117
0.496969
1096
0.496933
1128
0.496897
1088
0.496861
1061
0.496825
1054
0.49679
1114
0.496754
1036
0.496718
1045
0.496682
1059
0.496646
1052
0.496611
1033
0.496575
1072
0.496539
1031
0.496503
1090
0.496467
1027
0.496431
1007
0.496396
1037
0.49636
1048
0.496324
1043
0.496288
991
0.496253
980
0.496217
1042
0.496181
1014
0.496145
1038
0.496109
1038
0.496073
1019
0.496038
1032
0.496002
975
0.495966
984
0.49593
988
0.495894
978
0.495859
1035
0.495823
1012
0.495787
1013
0.495751
1034
0.495715
1054
0.49568
1002
0.495644
1014
0.495608
1011
0.495572
956
0.495536
1033
0.495501
1024
0.495465
1030
0.495429
977
0.495393
1038
0.495357
1025
0.495322
1019
0.495286
1024
0.49525
996
0.495214
1007
0.495178
971
0.495143
979
0.495107
1003
0.495071
1017
0.495035
990
0.494999
1000
0.494964
1004
0.494928
1000
0.494892
951
0.494856
1007
0.49482
994
0.494785
989
0.494749
978
0.494713
996
0.494677
997
0.494641
985
0.494606
1029
0.49457
977
0.494534
1041
0.494498
1032
0.494462
1017
0.494426
1008
0.494391
1025
0.494355
989
0.494319
1011
0.494283
1004
0.494247
987
0.494212
999
0.494176
1003
0.49414
988
0.494104
994
0.494068
1002
0.494033
969
0.493997
1035
0.493961
1025
0.493925
970
0.493889
988
0.493854
1017
0.493818
1043
0.493782
1009
0.493746
973
0.49371
999
0.493675
1018
0.493639
1028
0.493603
1002
0.493567
966
0.493531
1022
0.493496
974
0.49346
989
0.493424
948
0.493388
956
0.493352
964
0.493317
976
0.493281
993
0.493245
973
0.493209
966
0.493173
958
0.493138
1001
0.493102
970
0.493066
960
0.49303
983
0.492994
988
0.492959
Si 2p/12
Not Specified
2019
5
29
17
39
46
0
9
Casa Info Follows
1
Calib M = 282.249 A = 285 BE ADD
0
0
0
   XPS     Spectrum    Lens Mode:Hybrid   Resolution:Pass energy 20    Iris(Aper):slot(SLOT)
   Acqn. Time(s): 502        Sweeps: 5        Anode:Mono(Al (Mono))(150 W)   Step(meV): 100.0 
   Dwell Time(ms): 500        Charge Neutraliser :On   Acquired On :19/05/29 17:39:46
XPS
88
0
0
Mono(Al (Mono))
1486.69
150
1e+037
1e+037
641
641
1e+037
1e+037
FAT
20
1e+037
-4.5
0
1e+037
1e+037
1e+037
1e+037
Si
2p
-1
Kinetic Energy
eV
1374.69
0.1
2
Intensity
d
Transmission
d
pulse counting
0.5
5
0
1e+037
1e+037
1e+037
0
402
930
1104
0.48902
0.496181
994
0.496181
1006
0.496145
1003
0.496109
1011
0.496073
1050
0.496038
1028
0.496002
1026
0.495966
984
0.49593
1040
0.495894
982
0.495859
966
0.495823
1033
0.495787
1013
0.495751
1004
0.495715
1032
0.49568
966
0.495644
996
0.495608
1014
0.495572
1024
0.495536
1065
0.495501
1047
0.495465
1010
0.495429
1002
0.495393
1084
0.495357
1035
0.495322
1026
0.495286
1009
0.49525
955
0.495214
1024
0.495178
987
0.495143
1012
0.495107
1059
0.495071
1045
0.495035
1022
0.494999
996
0.494964
1048
0.494928
989
0.494892
1004
0.494856
1030
0.49482
996
0.494785
984
0.494749
970
0.494713
1020
0.494677
972
0.494641
1017
0.494606
999
0.49457
997
0.494534
1019
0.494498
1036
0.494462
1069
0.494426
1031
0.494391
991
0.494355
989
0.494319
969
0.494283
969
0.494247
978
0.494212
1018
0.494176
1008
0.49414
987
0.494104
974
0.494068
987
0.494033
980
0.493997
946
0.493961
1002
0.493925
984
0.493889
991
0.493854
982
0.493818
1002
0.493782
1048
0.493746
1026
0.49371
972
0.493675
976
0.493639
1013
0.493603
1007
0.493567
951
0.493531
1037
0.493496
1007
0.49346
930
0.493424
1009
0.493388
1019
0.493352
1034
0.493317
969
0.493281
1011
0.493245
997
0.493209
985
0.493173
997
0.493138
987
0.493102
1013
0.493066
963
0.49303
1019
0.492994
1027
0.492959
1015
0.492923
1012
0.492887
980
0.492851
1025
0.492815
983
0.492779
1000
0.492744
977
0.492708
984
0.492672
1016
0.492636
984
0.4926
1011
0.492565
954
0.492529
1008
0.492493
1012
0.492457
962
0.492421
1030
0.492386
1009
0.49235
1015
0.492314
1002
0.492278
1026
0.492242
1024
0.492207
990
0.492171
977
0.492135
1038
0.492099
990
0.492063
998
0.492028
996
0.491992
1014
0.491956
977
0.49192
1050
0.491884
1030
0.491849
1015
0.491813
1018
0.491777
1006
0.491741
1032
0.491705
1037
0.49167
1072
0.491634
1089
0.491598
1031
0.491562
1020
0.491526
1035
0.491491
1036
0.491455
1006
0.491419
1012
0.491383
1041
0.491347
1104
0.491312
1056
0.491276
1034
0.49124
1047
0.491204
959
0.491168
982
0.491132
1040
0.491097
1044
0.491061
996
0.491025
1007
0.490989
978
0.490953
984
0.490918
1009
0.490882
966
0.490846
973
0.49081
1001
0.490774
997
0.490739
1003
0.490703
965
0.490667
1035
0.490631
1077
0.490595
1088
0.49056
1032
0.490524
1066
0.490488
1030
0.490452
1052
0.490416
967
0.490381
993
0.490345
1009
0.490309
982
0.490273
978
0.490237
1020
0.490202
1011
0.490166
1045
0.49013
1063
0.490094
1078
0.490058
991
0.490023
1076
0.489987
1080
0.489951
1010
0.489915
1008
0.489879
987
0.489844
997
0.489808
1006
0.489772
1068
0.489736
990
0.4897
1027
0.489665
978
0.489629
1006
0.489593
1052
0.489557
1052
0.489521
1048
0.489486
1048
0.48945
1004
0.489414
1051
0.489378
961
0.489342
995
0.489306
1012
0.489271
999
0.489235
956
0.489199
1001
0.489163
1008
0.489127
1040
0.489092
1020
0.489056
1040
0.48902
Al 2p/13
Not Specified
2019
5
29
17
39
46
0
9
Casa Info Follows
1
Calib M = 282.249 A = 285 BE ADD
0
0
0
   XPS     Spectrum    Lens Mode:Hybrid   Resolution:Pass energy 20    Iris(Aper):slot(SLOT)
   Acqn. Time(s): 628        Sweeps: 5        Anode:Mono(Al (Mono))(150 W)   Step(meV): 100.0 
   Dwell Time(ms): 500        Charge Neutraliser :On   Acquired On :19/05/29 17:39:46
XPS
88
0
0
Mono(Al (Mono))
1486.69
150
1e+037
1e+037
641
641
1e+037
1e+037
FAT
20
1e+037
-4.5
0
1e+037
1e+037
1e+037
1e+037
Al
2p
-1
Kinetic Energy
eV
1398.19
0.1
2
Intensity
d
Transmission
d
pulse counting
0.5
5
0
1e+037
1e+037
1e+037
0
502
806
2389
0.478816
0.487767
1054
0.487767
1047
0.487731
993
0.487695
1015
0.487659
1026
0.487624
1090
0.487588
1022
0.487552
1062
0.487516
1010
0.48748
1056
0.487445
992
0.487409
1075
0.487373
990
0.487337
993
0.487301
1023
0.487266
1023
0.48723
1033
0.487194
1036
0.487158
1014
0.487122
1024
0.487087
984
0.487051
1035
0.487015
1047
0.486979
1040
0.486943
1073
0.486908
1019
0.486872
1004
0.486836
1044
0.4868
1033
0.486764
1050
0.486729
1016
0.486693
1016
0.486657
990
0.486621
1040
0.486585
1058
0.48655
1048
0.486514
1063
0.486478
1058
0.486442
994
0.486406
983
0.486371
1030
0.486335
1032
0.486299
1020
0.486263
1045
0.486227
1029
0.486192
1027
0.486156
1057
0.48612
1042
0.486084
1002
0.486048
1022
0.486013
1016
0.485977
1022
0.485941
1046
0.485905
1092
0.485869
1019
0.485833
994
0.485798
1052
0.485762
1005
0.485726
984
0.48569
982
0.485654
1042
0.485619
1046
0.485583
1041
0.485547
1009
0.485511
1029
0.485475
993
0.48544
1042
0.485404
1023
0.485368
1019
0.485332
1039
0.485296
1040
0.485261
1011
0.485225
970
0.485189
1040
0.485153
1035
0.485117
1013
0.485082
957
0.485046
996
0.48501
1016
0.484974
1030
0.484938
1000
0.484903
1028
0.484867
998
0.484831
994
0.484795
1046
0.484759
988
0.484724
1013
0.484688
978
0.484652
1021
0.484616
1062
0.48458
1002
0.484545
958
0.484509
945
0.484473
986
0.484437
954
0.484401
1006
0.484366
971
0.48433
920
0.484294
958
0.484258
984
0.484222
982
0.484187
958
0.484151
949
0.484115
1000
0.484079
939
0.484043
970
0.484007
955
0.483972
946
0.483936
943
0.4839
919
0.483864
967
0.483828
969
0.483793
962
0.483757
977
0.483721
964
0.483685
990
0.483649
935
0.483614
967
0.483578
963
0.483542
897
0.483506
968
0.48347
996
0.483435
938
0.483399
962
0.483363
905
0.483327
919
0.483291
940
0.483256
933
0.48322
923
0.483184
942
0.483148
991
0.483112
936
0.483077
951
0.483041
941
0.483005
1007
0.482969
1044
0.482933
984
0.482898
963
0.482862
962
0.482826
979
0.48279
961
0.482754
999
0.482719
967
0.482683
995
0.482647
1037
0.482611
1007
0.482575
1032
0.48254
1038
0.482504
1101
0.482468
1124
0.482432
1105
0.482396
1129
0.48236
1126
0.482325
1203
0.482289
1299
0.482253
1398
0.482217
1378
0.482181
1504
0.482146
1603
0.48211
1691
0.482074
1763
0.482038
1896
0.482002
1934
0.481967
2093
0.481931
2210
0.481895
2179
0.481859
2231
0.481823
2267
0.481788
2389
0.481752
2269
0.481716
2152
0.48168
2185
0.481644
2099
0.481609
2008
0.481573
1761
0.481537
1632
0.481501
1517
0.481465
1447
0.48143
1294
0.481394
1215
0.481358
1168
0.481322
1097
0.481286
947
0.481251
985
0.481215
884
0.481179
898
0.481143
872
0.481107
891
0.481072
880
0.481036
934
0.481
898
0.480964
854
0.480928
875
0.480893
904
0.480857
913
0.480821
881
0.480785
887
0.480749
865
0.480713
834
0.480678
873
0.480642
823
0.480606
850
0.48057
869
0.480534
813
0.480499
889
0.480463
819
0.480427
813
0.480391
835
0.480355
865
0.48032
866
0.480284
806
0.480248
859
0.480212
818
0.480176
841
0.480141
889
0.480105
846
0.480069
865
0.480033
872
0.479997
884
0.479962
854
0.479926
827
0.47989
853
0.479854
869
0.479818
809
0.479783
863
0.479747
873
0.479711
855
0.479675
882
0.479639
887
0.479604
855
0.479568
866
0.479532
880
0.479496
851
0.47946
857
0.479425
830
0.479389
904
0.479353
855
0.479317
860
0.479281
880
0.479246
862
0.47921
901
0.479174
870
0.479138
913
0.479102
844
0.479066
839
0.479031
854
0.478995
932
0.478959
947
0.478923
894
0.478887
922
0.478852
900
0.478816
end of experiment
