VAMAS Surface Chemical Analysis Standard Data Transfer Format 1988 May 4
Not Specified
Kratos Axis
Not Specified
/C=/data/BAM_I/Schneider/schneid_028.dset
4
Casa Info Follows CasaXPS Version 2.3.20rev1.2G
0
NM103
SourceAnalyserAngle: Not Specified
MAP
REGULAR
13
2
32768
32768
1
Etch Time
s
0
0
0
0
13
widescan/1
Not Specified
2019
5
29
14
31
10
0
9
Casa Info Follows
1
Calib M = 281.704 A = 285 BE ADD
0
0
0
   XPS     Spectrum    Lens Mode:Hybrid   Resolution:Pass energy 80    Iris(Aper):slot(SLOT)
   Acqn. Time(s): 1201       Sweeps: 2        Anode:Mono(Al (Mono))(150 W)   Step(meV): 1000.0
   Dwell Time(ms): 500        Charge Neutraliser :On   Acquired On :19/05/29 14:31:10
XPS
53
2
0
Mono(Al (Mono))
1486.69
150
1e+037
1e+037
641
641
1e+037
1e+037
FAT
80
1e+037
-4.5
0
1e+037
1e+037
1e+037
1e+037
Wide
None
-1
Kinetic Energy
eV
286.69
1
2
Intensity
d
Transmission
d
pulse counting
0.5
2
0
1e+037
1e+037
1e+037
0
2402
147
61759
4.10173
7.3408
24128
7.3408
24113
7.3341
24128
7.3274
24141
7.3207
24400
7.314
24202
7.3073
24360
7.3006
24636
7.2939
24574
7.2872
24632
7.2805
24781
7.2738
25033
7.2671
24721
7.2604
24772
7.25369
25220
7.24699
25358
7.24029
25337
7.23359
25509
7.22689
25240
7.22019
25557
7.21349
25659
7.20679
25582
7.20009
25651
7.19339
25637
7.18669
25959
7.17999
25876
7.17329
25906
7.16658
26002
7.15988
26083
7.15318
26038
7.14648
26377
7.13978
26653
7.13308
26439
7.12638
26181
7.11968
26223
7.11298
26421
7.10628
26606
7.09958
26763
7.09288
26767
7.08618
26901
7.07948
26875
7.07277
27388
7.06607
27119
7.06065
27306
7.0568
27323
7.05296
27497
7.04912
27509
7.04527
27438
7.04143
27680
7.03758
27686
7.03374
27552
7.02989
27700
7.02605
27943
7.0222
27841
7.01836
27897
7.01451
27878
7.01067
27712
7.00682
27659
7.00298
27991
6.99913
28084
6.99529
28004
6.99144
28294
6.9876
28690
6.98375
28611
6.97991
28678
6.97606
28731
6.97222
29007
6.96837
28668
6.96453
28763
6.96068
28933
6.95684
29122
6.95299
29082
6.94915
29467
6.9453
29180
6.94146
29187
6.93761
29231
6.93377
28653
6.92992
28989
6.92608
28909
6.92224
29052
6.91839
28877
6.91455
28579
6.9107
28848
6.90686
29013
6.90301
28921
6.89917
28899
6.89532
28944
6.89148
29191
6.88763
29408
6.88379
29488
6.87994
29864
6.8761
30011
6.87225
30473
6.86841
30670
6.86456
31011
6.86072
31244
6.85687
31203
6.85303
30875
6.84918
30322
6.84534
30036
6.84149
29622
6.83765
28724
6.8338
28125
6.82996
27528
6.82611
27052
6.82227
26873
6.81842
26474
6.81458
26146
6.81073
26204
6.80689
26289
6.80304
26170
6.7992
26433
6.79535
26040
6.79151
26346
6.78767
26248
6.78382
26158
6.77998
26223
6.77613
26233
6.77229
26060
6.76844
25909
6.7646
26113
6.76075
26267
6.75691
26089
6.75306
26201
6.74922
26563
6.74537
26917
6.74153
27392
6.73768
27658
6.73384
27845
6.72999
27668
6.72615
27899
6.7223
27633
6.71846
27550
6.71461
27271
6.71077
27013
6.70692
26857
6.70308
26443
6.69923
26190
6.69539
26352
6.69154
25892
6.6877
25568
6.68385
25686
6.68001
25749
6.67616
25618
6.67232
25839
6.66847
25983
6.66463
26029
6.66079
25983
6.65694
25863
6.6531
25976
6.64925
25859
6.64541
26133
6.64156
25874
6.63772
26103
6.63387
26158
6.63003
26027
6.62618
26379
6.62234
26348
6.61849
26603
6.61465
26442
6.6108
26512
6.60696
26727
6.60311
26629
6.59927
26771
6.59542
27062
6.59158
26742
6.58773
26792
6.58389
26925
6.58004
26804
6.5762
27119
6.57235
27128
6.56891
27242
6.56566
27226
6.56242
27239
6.55918
27116
6.55594
27310
6.5527
27267
6.54945
27547
6.54621
27651
6.54297
27923
6.53973
27848
6.53649
28214
6.53324
28156
6.53
28219
6.52676
28091
6.52352
28192
6.52028
28160
6.51703
28476
6.51379
28464
6.51055
28467
6.50731
28758
6.50407
28725
6.50082
28957
6.49758
28927
6.49434
28905
6.4911
29007
6.48786
28985
6.48461
29335
6.48137
29485
6.47813
29540
6.47489
29502
6.47165
29888
6.4684
30233
6.46516
30142
6.46192
30293
6.45868
30543
6.45544
30244
6.45219
30145
6.44895
30164
6.44571
29972
6.44247
29210
6.43923
28712
6.43598
28456
6.43274
28498
6.4295
28345
6.42626
28127
6.42302
28407
6.41977
28652
6.41653
29414
6.41329
30080
6.41005
30637
6.40681
31793
6.40356
32904
6.40032
34181
6.39708
34634
6.39384
34906
6.39059
34869
6.38735
34460
6.38411
33535
6.38087
31710
6.37763
29375
6.37438
27623
6.37114
26247
6.3679
24850
6.36466
24079
6.36142
23185
6.35817
22275
6.35493
21852
6.35169
21701
6.34845
21368
6.34521
21063
6.34196
20884
6.33872
20934
6.33548
20969
6.33224
20971
6.329
21163
6.32575
21013
6.32251
20956
6.31927
20908
6.31603
21009
6.31279
21155
6.30954
21134
6.3063
21241
6.30306
21315
6.29982
21075
6.29658
21280
6.29333
21251
6.29009
21106
6.28685
21197
6.28361
21479
6.28037
21225
6.27712
21272
6.27388
21276
6.27064
21333
6.2674
21239
6.26416
21397
6.26091
21550
6.25767
21669
6.25443
21383
6.25119
21439
6.24795
21754
6.2447
21686
6.24146
21577
6.23822
21601
6.23498
21558
6.23174
21672
6.22849
21531
6.22525
21648
6.22201
21969
6.21877
21818
6.21553
21416
6.21228
21779
6.20904
21874
6.2058
21861
6.20256
21913
6.19931
21896
6.19607
21813
6.19283
21914
6.18959
22078
6.18635
22252
6.1831
21977
6.17986
21986
6.17662
22032
6.17338
22217
6.17014
22280
6.16689
22152
6.16365
22181
6.16041
22271
6.15717
22381
6.15393
22201
6.15068
22197
6.14744
22174
6.1442
22271
6.14096
22346
6.13772
22380
6.13447
22440
6.13123
22404
6.12799
22373
6.12475
22451
6.12151
22767
6.11826
22693
6.11502
22691
6.11178
22370
6.10854
22441
6.1053
22748
6.10205
22628
6.09881
22565
6.09557
22807
6.09233
22569
6.08909
22657
6.08584
22710
6.0826
22587
6.07936
22661
6.07612
22708
6.07288
22702
6.06963
22720
6.06639
22919
6.06315
22827
6.05991
22964
6.05667
22802
6.05342
22894
6.05018
23045
6.04694
23031
6.0437
23108
6.04046
22975
6.03721
22986
6.03397
23000
6.03073
22915
6.02749
23167
6.02425
23360
6.021
23216
6.01776
23245
6.01452
23136
6.01128
23273
6.00803
23420
6.00479
23210
6.00155
23486
5.99831
23605
5.99507
23337
5.99182
23587
5.98858
23468
5.98534
23166
5.9821
23354
5.97886
23643
5.97561
23599
5.97237
23440
5.96913
23414
5.96589
23404
5.96265
23622
5.9594
23580
5.95616
23728
5.95292
23795
5.94968
23796
5.94644
23738
5.94319
23804
5.93995
23936
5.93671
23823
5.93347
23842
5.93023
23744
5.92698
23777
5.92374
24101
5.9205
24014
5.91726
24201
5.91402
23948
5.91077
23852
5.90753
23962
5.90429
23914
5.90105
24107
5.89781
23895
5.89456
24134
5.89159
24024
5.88871
24021
5.88583
24088
5.88295
24160
5.88007
24248
5.87719
24140
5.87431
24273
5.87143
24169
5.86855
24353
5.86567
24396
5.86279
24486
5.85991
24445
5.85703
24562
5.85414
24260
5.85126
24191
5.84838
24476
5.8455
24292
5.84262
24253
5.83974
24432
5.83686
24365
5.83398
24243
5.8311
24440
5.82822
24472
5.82534
24623
5.82246
24647
5.81957
24779
5.81669
24623
5.81381
24727
5.81093
24719
5.80805
24910
5.80517
24768
5.80229
24656
5.79941
24510
5.79653
24445
5.79365
24685
5.79077
24837
5.78789
24786
5.78501
24896
5.78212
25120
5.77924
25062
5.77636
24721
5.77348
24814
5.7706
24893
5.76772
24898
5.76484
24858
5.76196
24997
5.75908
25043
5.7562
25147
5.75332
25170
5.75044
25082
5.74756
25067
5.74467
25286
5.74179
25192
5.73891
25275
5.73603
25322
5.73315
25280
5.73027
25320
5.72739
25384
5.72451
25406
5.72163
25405
5.71875
25416
5.71587
25347
5.71299
25396
5.7101
25567
5.70722
25581
5.70434
25494
5.70146
25491
5.69858
25518
5.6957
25318
5.69282
25276
5.68994
25647
5.68706
25490
5.68418
25591
5.6813
25731
5.67842
25592
5.67554
25469
5.67265
25658
5.66977
25683
5.66689
25640
5.66401
25686
5.66113
25963
5.65825
25868
5.65537
25695
5.65249
25762
5.64961
26072
5.64673
25992
5.64385
25828
5.64097
25780
5.63808
25736
5.6352
25804
5.63232
25952
5.62944
25812
5.62656
25775
5.62368
26032
5.6208
25941
5.61792
26035
5.61504
26261
5.61216
25934
5.60928
26038
5.6064
25956
5.60352
26317
5.60064
26039
5.59775
26369
5.59487
26441
5.59199
26361
5.58911
26518
5.58623
26298
5.58335
26083
5.58047
26430
5.57759
26387
5.57471
26209
5.57183
26042
5.56895
26170
5.56607
26394
5.56318
26439
5.5603
26293
5.55742
26638
5.55454
26479
5.55166
26446
5.54878
26702
5.5459
26465
5.54302
26531
5.54014
26694
5.53726
26372
5.53438
26317
5.5315
26533
5.52861
26522
5.52573
26458
5.52285
26704
5.51997
26499
5.51709
26662
5.51421
26537
5.51133
26555
5.50845
26933
5.50557
26997
5.50269
26896
5.49981
27096
5.49693
27222
5.49405
27321
5.49116
26925
5.48828
26764
5.4854
26699
5.48252
26621
5.47964
26925
5.47676
26877
5.47388
26860
5.471
26824
5.46812
26844
5.46524
26767
5.46236
26783
5.45948
26931
5.4566
26849
5.45371
26918
5.45083
26806
5.44795
27128
5.44507
27140
5.44219
27397
5.43931
27316
5.43643
27233
5.43355
27399
5.43067
27216
5.42779
26656
5.42491
26878
5.42203
27102
5.41915
27062
5.41626
27277
5.41338
27309
5.4105
27236
5.40762
27204
5.40474
27255
5.40186
27263
5.39898
27301
5.3961
27373
5.39322
27281
5.39034
27166
5.38746
27226
5.38458
27468
5.38169
27483
5.37881
27379
5.37593
27247
5.37305
27219
5.37017
27379
5.36729
27367
5.36441
27414
5.36153
27741
5.35865
27573
5.35577
27428
5.35289
27412
5.35001
27680
5.34713
27549
5.34424
27565
5.34136
27548
5.33848
27526
5.3356
27814
5.33272
27489
5.32984
27637
5.32696
27448
5.32408
27718
5.3212
27540
5.31832
27513
5.31544
27948
5.31256
27887
5.30968
27873
5.30679
28107
5.30391
28017
5.30103
27945
5.29815
27920
5.29527
27959
5.29239
28069
5.28951
28361
5.28663
28233
5.28375
28327
5.28087
28097
5.27799
28216
5.27511
28065
5.27222
28042
5.26934
27906
5.26646
28121
5.26358
28149
5.2607
27802
5.25782
28089
5.25494
27892
5.25288
28016
5.25089
28172
5.24889
28345
5.2469
28090
5.24491
27962
5.24292
28098
5.24093
28465
5.23894
28472
5.23694
28496
5.23495
28325
5.23296
28440
5.23097
28354
5.22898
28483
5.22699
28662
5.225
28817
5.223
29029
5.22101
28942
5.21902
28912
5.21703
29255
5.21504
29442
5.21305
30037
5.21106
29545
5.20906
29710
5.20707
29279
5.20508
28945
5.20309
28361
5.2011
27837
5.19911
27576
5.19712
27721
5.19512
28131
5.19313
28259
5.19114
29101
5.18915
29828
5.18716
30212
5.18517
31193
5.18318
31353
5.18118
30903
5.17919
29798
5.1772
28283
5.17521
27392
5.17322
27196
5.17123
26900
5.16923
26703
5.16724
26630
5.16525
26814
5.16326
26339
5.16127
26167
5.15928
25573
5.15729
25013
5.15529
24650
5.1533
24247
5.15131
23888
5.14932
23820
5.14733
23604
5.14534
23497
5.14335
23318
5.14135
23406
5.13936
23136
5.13737
22750
5.13538
21782
5.13339
20739
5.1314
19621
5.12941
19352
5.12741
20066
5.12542
21663
5.12343
24636
5.12144
29325
5.11945
37490
5.11746
47948
5.11547
54409
5.11347
61759
5.11148
60402
5.10949
30672
5.1075
16784
5.10551
14985
5.10352
14551
5.10153
14395
5.09953
14447
5.09754
14260
5.09555
14191
5.09356
14319
5.09157
14142
5.08958
14275
5.08758
14148
5.08559
14328
5.0836
14204
5.08161
14235
5.07962
14180
5.07763
14320
5.07564
14414
5.07364
14150
5.07165
14185
5.06966
14151
5.06767
14191
5.06568
14124
5.06369
14064
5.0617
13869
5.0597
13808
5.05771
13632
5.05572
13489
5.05373
13530
5.05174
13616
5.04975
13655
5.04776
13750
5.04576
13988
5.04377
14080
5.04178
13802
5.03979
13672
5.0378
13878
5.03581
14017
5.03382
14095
5.03182
14193
5.02983
14596
5.02784
14780
5.02585
14905
5.02386
14758
5.02187
14446
5.01988
14304
5.01788
14296
5.01589
14206
5.0139
14365
5.01191
14601
5.00992
14590
5.00793
14703
5.00593
14358
5.00394
13945
5.00195
13930
4.99996
14390
4.99797
14764
4.99598
14194
4.99399
12663
4.99199
11561
4.99
11696
4.98801
12507
4.98602
13911
4.98403
17169
4.98204
21331
4.98005
19769
4.97805
15528
4.97606
14928
4.97407
16837
4.97208
25221
4.97009
35976
4.9681
18664
4.96611
5254
4.96411
3261
4.96212
2826
4.96013
2625
4.95796
2556
4.95572
2592
4.95347
2440
4.95123
2408
4.94898
2432
4.94673
2455
4.94449
2437
4.94224
2454
4.94
2413
4.93775
2391
4.93551
2378
4.93326
2409
4.93101
2366
4.92877
2331
4.92652
2335
4.92428
2459
4.92203
2383
4.91979
2356
4.91754
2377
4.91529
2389
4.91305
2422
4.9108
2375
4.90856
2356
4.90631
2330
4.90406
2429
4.90182
2397
4.89957
2453
4.89733
2416
4.89508
2358
4.89284
2339
4.89059
2329
4.88834
2350
4.8861
2327
4.88385
2280
4.88161
2288
4.87936
2377
4.87712
2440
4.87487
2384
4.87262
2415
4.87038
2438
4.86813
2462
4.86589
2438
4.86364
2371
4.86139
2400
4.85915
2446
4.8569
2460
4.85466
2404
4.85241
2419
4.85017
2457
4.84792
2494
4.84567
2457
4.84343
2391
4.84118
2384
4.83894
2368
4.83669
2331
4.83445
2386
4.8322
2478
4.82995
2448
4.82771
2407
4.82546
2340
4.82322
2361
4.82097
2405
4.81873
2433
4.81648
2418
4.81423
2416
4.81199
2394
4.80974
2450
4.8075
2425
4.80525
2464
4.803
2435
4.80076
2402
4.79851
2438
4.79627
2373
4.79402
2420
4.79178
2443
4.78953
2406
4.78728
2458
4.78504
2422
4.78279
2440
4.78055
2418
4.7783
2456
4.77606
2453
4.77381
2379
4.77156
2356
4.76932
2402
4.76707
2454
4.76483
2514
4.76258
2465
4.76033
2472
4.75809
2369
4.75584
2400
4.7536
2486
4.75135
2441
4.74911
2481
4.74686
2456
4.74461
2419
4.74237
2426
4.74012
2495
4.73788
2410
4.73563
2432
4.73339
2436
4.73114
2377
4.72889
2408
4.72665
2421
4.7244
2446
4.72216
2464
4.71991
2503
4.71767
2538
4.71542
2414
4.71317
2480
4.71093
2433
4.70868
2465
4.70644
2452
4.70419
2503
4.70195
2486
4.6997
2440
4.69745
2507
4.69521
2558
4.69296
2538
4.69072
2545
4.68847
2515
4.68622
2511
4.68398
2525
4.68173
2464
4.67949
2448
4.67724
2445
4.675
2479
4.67275
2487
4.6705
2525
4.66826
2535
4.66601
2575
4.66377
2554
4.66152
2564
4.65928
2545
4.65703
2513
4.65478
2583
4.65254
2630
4.65029
2557
4.64805
2608
4.6458
2597
4.64356
2523
4.64131
2566
4.63906
2514
4.63682
2585
4.63457
2587
4.63233
2564
4.63008
2559
4.62783
2672
4.62559
2657
4.62334
2635
4.6211
2639
4.61885
2649
4.61661
2725
4.61436
2542
4.61211
2529
4.60987
2467
4.60762
2458
4.60538
2467
4.60313
2499
4.60089
2359
4.59864
2433
4.59639
2537
4.59415
2632
4.5919
2619
4.58966
2759
4.58741
2980
4.58517
3285
4.58292
4003
4.58067
4879
4.57843
4328
4.57618
2921
4.57394
2499
4.57169
2468
4.56944
2381
4.5672
2411
4.56495
2335
4.56271
2335
4.56046
2302
4.55822
2415
4.55597
2423
4.55372
2483
4.55148
2426
4.54923
2417
4.54699
2449
4.54474
2391
4.5425
2414
4.54025
2359
4.538
2346
4.53576
2378
4.53351
2351
4.53127
2316
4.52902
2329
4.52677
2346
4.52453
2400
4.52228
2404
4.52004
2403
4.51779
2454
4.51555
2368
4.5133
2359
4.51105
2374
4.50881
2400
4.50679
2362
4.50485
2367
4.50291
2340
4.50098
2410
4.49904
2445
4.4971
2409
4.49516
2364
4.49322
2373
4.49128
2351
4.48934
2390
4.4874
2330
4.48546
2389
4.48353
2368
4.48159
2382
4.47965
2336
4.47771
2424
4.47577
2445
4.47383
2498
4.47189
2674
4.46995
2605
4.46801
2495
4.46607
2427
4.46414
2396
4.4622
2456
4.46026
2413
4.45832
2460
4.45638
2458
4.45444
2392
4.4525
2384
4.45056
2381
4.44862
2453
4.44668
2373
4.44475
2375
4.44281
2390
4.44087
2446
4.43893
2449
4.43699
2450
4.43505
2390
4.43311
2409
4.43117
2400
4.42923
2434
4.42729
2476
4.42536
2447
4.42342
2390
4.42148
2395
4.41954
2371
4.4176
2461
4.41566
2429
4.41372
2455
4.41178
2444
4.40984
2490
4.4079
2564
4.40597
2617
4.40403
2633
4.40209
2580
4.40015
2463
4.39821
2430
4.39627
2505
4.39433
2496
4.39239
2479
4.39045
2495
4.38851
2496
4.38658
2482
4.38464
2493
4.3827
2536
4.38076
2478
4.37882
2533
4.37688
2453
4.37494
2526
4.373
2536
4.37106
2474
4.36912
2419
4.36719
2517
4.36525
2480
4.36331
2498
4.36137
2489
4.35943
2481
4.35749
2526
4.35555
2568
4.35361
2475
4.35167
2630
4.34973
2721
4.3478
2846
4.34586
2882
4.34392
2633
4.34198
2537
4.34004
2601
4.3381
2495
4.33616
2526
4.33422
2498
4.33228
2493
4.33034
2515
4.32841
2484
4.32653
2560
4.32484
2552
4.32315
2649
4.32146
2793
4.31977
2904
4.31808
3355
4.31639
3465
4.3147
3139
4.31301
2823
4.31132
2655
4.30963
2675
4.30794
2618
4.30625
2676
4.30456
2685
4.30288
2679
4.30119
2736
4.2995
2664
4.29781
2729
4.29612
2650
4.29443
2660
4.29274
2661
4.29105
2691
4.28936
2643
4.28767
2671
4.28598
2650
4.28429
2564
4.2826
2575
4.28091
2639
4.27922
2678
4.27753
2620
4.27584
2567
4.27415
2576
4.27247
2587
4.27078
2517
4.26909
2695
4.2674
2786
4.26571
3020
4.26402
3506
4.26233
4267
4.26064
5070
4.25895
4497
4.25726
3416
4.25557
2751
4.25388
2604
4.25219
2592
4.2505
2616
4.24881
2510
4.24712
2487
4.24543
2428
4.24375
2503
4.24206
2438
4.24037
2540
4.23868
2623
4.23699
2548
4.2353
2640
4.23361
2792
4.23192
3148
4.23023
3307
4.22854
3003
4.22685
2670
4.22516
2589
4.22347
2548
4.22178
2504
4.22009
2521
4.2184
2451
4.21671
2476
4.21503
2570
4.21334
2590
4.21165
2609
4.20996
2520
4.20827
2527
4.20658
2516
4.20489
2582
4.2032
2622
4.20151
2527
4.19982
2532
4.19813
2454
4.19644
2475
4.19475
2438
4.19306
2485
4.19137
2567
4.18968
2747
4.18799
3090
4.18631
3812
4.18462
4262
4.18293
3360
4.18124
2380
4.17955
2164
4.17786
2142
4.17617
2189
4.17448
2220
4.17279
2301
4.1711
2419
4.16941
2615
4.16772
2863
4.16603
3258
4.16434
3654
4.16265
3418
4.16096
2769
4.15927
2224
4.15759
1986
4.1559
1933
4.15421
1939
4.15252
1912
4.15083
1913
4.14914
2030
4.14745
2087
4.14576
2061
4.14407
2105
4.14238
1928
4.14069
1787
4.139
1659
4.13731
1623
4.13562
1598
4.13393
1634
4.13224
1760
4.13055
1886
4.12887
2128
4.12718
2519
4.12549
3113
4.1238
3968
4.12211
4982
4.12042
4402
4.11873
2342
4.11704
1245
4.11535
883
4.11366
821
4.11197
752
4.11028
805
4.10859
790
4.1069
851
4.10521
961
4.10352
1182
4.10183
1345
4.10173
1469
4.10173
1749
4.10173
1968
4.10173
1704
4.10173
1145
4.10173
715
4.10173
505
4.10173
363
4.10173
302
4.10173
258
4.10173
237
4.10173
231
4.10173
273
4.10173
335
4.10173
394
4.10173
437
4.10173
593
4.10173
815
4.10173
817
4.10173
729
4.10173
602
4.10173
347
4.10173
147
4.10173
F 1s/2
Not Specified
2019
5
29
14
54
38
0
9
Casa Info Follows
1
Calib M = 281.704 A = 285 BE ADD
0
0
0
   XPS     Spectrum    Lens Mode:Hybrid   Resolution:Pass energy 20    Iris(Aper):slot(SLOT)
   Acqn. Time(s): 628        Sweeps: 5        Anode:Mono(Al (Mono))(150 W)   Step(meV): 100.0 
   Dwell Time(ms): 500        Charge Neutraliser :On   Acquired On :19/05/29 14:54:38
XPS
53
2
0
Mono(Al (Mono))
1486.69
150
1e+037
1e+037
641
641
1e+037
1e+037
FAT
20
1e+037
-4.5
0
1e+037
1e+037
1e+037
1e+037
F
1s
-1
Kinetic Energy
eV
790.19
0.1
2
Intensity
d
Transmission
d
pulse counting
0.5
5
0
1e+037
1e+037
1e+037
0
502
9025
9705
0.629651
0.63801
9025
0.63801
9209
0.637977
9300
0.637943
9203
0.63791
9225
0.637876
9199
0.637843
9239
0.63781
9300
0.637776
9333
0.637743
9211
0.637709
9184
0.637676
9370
0.637642
9243
0.637609
9247
0.637575
9091
0.637542
9135
0.637509
9227
0.637475
9261
0.637442
9201
0.637408
9331
0.637375
9275
0.637341
9231
0.637308
9239
0.637275
9237
0.637241
9237
0.637208
9196
0.637174
9158
0.637141
9390
0.637107
9199
0.637074
9231
0.63704
9208
0.637007
9221
0.636974
9147
0.63694
9239
0.636907
9261
0.636873
9120
0.63684
9249
0.636806
9270
0.636773
9258
0.63674
9268
0.636706
9267
0.636673
9297
0.636639
9303
0.636606
9301
0.636572
9299
0.636539
9275
0.636505
9239
0.636472
9230
0.636439
9294
0.636405
9216
0.636372
9249
0.636338
9195
0.636305
9152
0.636271
9300
0.636238
9155
0.636205
9214
0.636171
9171
0.636138
9273
0.636104
9222
0.636071
9245
0.636037
9132
0.636004
9139
0.635971
9301
0.635937
9260
0.635904
9303
0.63587
9337
0.635837
9230
0.635803
9272
0.63577
9242
0.635736
9378
0.635703
9229
0.63567
9193
0.635636
9160
0.635603
9345
0.635569
9132
0.635536
9302
0.635502
9209
0.635469
9177
0.635436
9294
0.635402
9249
0.635369
9224
0.635335
9291
0.635302
9214
0.635268
9268
0.635235
9122
0.635201
9408
0.635168
9470
0.635135
9262
0.635101
9341
0.635068
9305
0.635034
9176
0.635001
9444
0.634967
9372
0.634934
9297
0.634901
9357
0.634867
9291
0.634834
9273
0.6348
9249
0.634767
9243
0.634733
9386
0.6347
9311
0.634667
9425
0.634633
9409
0.6346
9447
0.634566
9379
0.634533
9268
0.634499
9327
0.634466
9302
0.634432
9131
0.634399
9402
0.634366
9360
0.634332
9347
0.634299
9421
0.634265
9405
0.634232
9402
0.634198
9387
0.634165
9353
0.634131
9304
0.634098
9382
0.634065
9201
0.634031
9259
0.633998
9396
0.633964
9515
0.633931
9365
0.633897
9420
0.633864
9408
0.633831
9422
0.633797
9408
0.633764
9482
0.63373
9408
0.633697
9328
0.633663
9335
0.63363
9435
0.633597
9552
0.633563
9704
0.63353
9502
0.633496
9617
0.633463
9613
0.633429
9705
0.633396
9526
0.633362
9593
0.633329
9514
0.633296
9568
0.633262
9664
0.633229
9604
0.633195
9448
0.633162
9338
0.633128
9307
0.633095
9371
0.633062
9453
0.633028
9227
0.632995
9343
0.632961
9463
0.632928
9465
0.632894
9349
0.632861
9285
0.632827
9277
0.632794
9432
0.632761
9304
0.632727
9319
0.632694
9131
0.63266
9339
0.632627
9365
0.632593
9436
0.63256
9222
0.632527
9336
0.632493
9325
0.63246
9247
0.632426
9452
0.632393
9344
0.632359
9166
0.632326
9158
0.632293
9117
0.632259
9357
0.632226
9205
0.632192
9290
0.632159
9454
0.632125
9301
0.632092
9183
0.632058
9157
0.632025
9242
0.631992
9351
0.631958
9294
0.631925
9351
0.631891
9291
0.631858
9285
0.631824
9307
0.631791
9388
0.631757
9438
0.631724
9382
0.631691
9428
0.631657
9354
0.631624
9464
0.63159
9309
0.631557
9281
0.631523
9280
0.63149
9227
0.631457
9245
0.631423
9277
0.63139
9359
0.631356
9291
0.631323
9297
0.631289
9276
0.631256
9304
0.631223
9380
0.631189
9183
0.631156
9119
0.631122
9141
0.631089
9350
0.631055
9337
0.631022
9272
0.630988
9428
0.630955
9275
0.630922
9172
0.630888
9249
0.630855
9330
0.630821
9304
0.630788
9310
0.630754
9324
0.630721
9380
0.630688
9271
0.630654
9122
0.630621
9391
0.630587
9418
0.630554
9342
0.63052
9320
0.630487
9307
0.630453
9291
0.63042
9303
0.630387
9316
0.630353
9256
0.63032
9351
0.630286
9182
0.630253
9259
0.630219
9260
0.630186
9328
0.630153
9337
0.630119
9324
0.630086
9384
0.630052
9304
0.630019
9285
0.629985
9409
0.629952
9419
0.629919
9330
0.629885
9293
0.629852
9427
0.629818
9372
0.629785
9280
0.629751
9335
0.629718
9383
0.629684
9320
0.629651
O 1s/3
Not Specified
2019
5
29
14
54
38
0
9
Casa Info Follows
1
Calib M = 281.704 A = 285 BE ADD
0
0
0
   XPS     Spectrum    Lens Mode:Hybrid   Resolution:Pass energy 20    Iris(Aper):slot(SLOT)
   Acqn. Time(s): 628        Sweeps: 5        Anode:Mono(Al (Mono))(150 W)   Step(meV): 100.0 
   Dwell Time(ms): 500        Charge Neutraliser :On   Acquired On :19/05/29 14:54:38
XPS
53
2
0
Mono(Al (Mono))
1486.69
150
1e+037
1e+037
641
641
1e+037
1e+037
FAT
20
1e+037
-4.5
0
1e+037
1e+037
1e+037
1e+037
O
1s
-1
Kinetic Energy
eV
943.19
0.1
2
Intensity
d
Transmission
d
pulse counting
0.5
5
0
1e+037
1e+037
1e+037
0
502
5006
32007
0.586704
0.592542
8343
0.592542
8275
0.592519
8327
0.592495
8498
0.592472
8536
0.592449
8473
0.592425
8342
0.592402
8401
0.592379
8404
0.592355
8402
0.592332
8458
0.592309
8399
0.592285
8175
0.592262
8260
0.592238
8432
0.592215
8218
0.592192
8302
0.592168
8496
0.592145
8297
0.592122
8332
0.592098
8336
0.592075
8306
0.592052
8303
0.592028
8348
0.592005
8404
0.591982
8169
0.591958
8200
0.591935
8238
0.591912
8144
0.591888
8134
0.591865
8003
0.591841
8087
0.591818
7870
0.591795
8053
0.591771
7965
0.591748
7902
0.591725
8071
0.591701
7962
0.591678
7758
0.591655
8058
0.591631
7768
0.591608
7862
0.591585
7898
0.591561
7862
0.591538
7861
0.591515
7886
0.591491
7692
0.591468
7748
0.591444
7589
0.591421
7520
0.591398
7728
0.591374
7477
0.591351
7566
0.591328
7583
0.591304
7411
0.591281
7371
0.591258
7307
0.591234
7286
0.591211
7153
0.591188
7144
0.591164
7115
0.591141
7092
0.591118
6950
0.591094
6968
0.591071
6781
0.591048
6899
0.591024
6779
0.591001
6733
0.590977
6765
0.590954
6764
0.590931
6727
0.590907
6694
0.590884
6615
0.590861
6642
0.590837
6557
0.590814
6614
0.590791
6682
0.590767
6569
0.590744
6575
0.590721
6593
0.590697
6672
0.590674
6590
0.590651
6483
0.590627
6624
0.590604
6643
0.59058
6690
0.590557
6719
0.590534
6783
0.59051
6667
0.590487
6634
0.590464
6642
0.59044
6764
0.590417
6860
0.590394
6936
0.59037
6963
0.590347
7098
0.590324
7124
0.5903
6987
0.590277
7134
0.590254
7209
0.59023
7310
0.590207
7278
0.590183
7361
0.59016
7481
0.590137
7696
0.590113
7659
0.59009
7758
0.590067
7692
0.590043
7680
0.59002
7876
0.589997
8164
0.589973
8172
0.58995
8477
0.589927
8599
0.589903
8772
0.58988
8810
0.589857
8908
0.589833
9371
0.58981
9507
0.589787
9816
0.589763
10095
0.58974
10325
0.589716
10592
0.589693
11040
0.58967
11573
0.589646
11993
0.589623
12359
0.5896
12613
0.589576
13316
0.589553
14004
0.58953
14396
0.589506
15007
0.589483
15667
0.58946
16099
0.589436
16709
0.589413
17208
0.58939
17634
0.589366
18053
0.589343
18619
0.589319
18770
0.589296
19003
0.589273
19360
0.589249
19463
0.589226
19388
0.589203
19467
0.589179
19678
0.589156
19669
0.589133
19948
0.589109
19979
0.589086
20183
0.589063
20209
0.589039
20597
0.589016
20838
0.588993
21066
0.588969
21893
0.588946
22814
0.588923
23867
0.588899
24995
0.588876
26403
0.588852
27858
0.588829
29474
0.588806
30700
0.588782
31634
0.588759
32007
0.588736
31524
0.588712
30259
0.588689
28053
0.588666
25602
0.588642
22658
0.588619
19362
0.588596
16172
0.588572
13397
0.588549
11106
0.588526
9465
0.588502
8362
0.588479
7544
0.588455
6903
0.588432
6528
0.588409
6183
0.588385
6064
0.588362
5827
0.588339
5754
0.588315
5737
0.588292
5655
0.588269
5521
0.588245
5664
0.588222
5540
0.588199
5432
0.588175
5303
0.588152
5372
0.588129
5412
0.588105
5493
0.588082
5338
0.588058
5209
0.588035
5337
0.588012
5295
0.587988
5261
0.587965
5172
0.587942
5284
0.587918
5218
0.587895
5229
0.587872
5073
0.587848
5184
0.587825
5150
0.587802
5206
0.587778
5190
0.587755
5224
0.587732
5168
0.587708
5145
0.587685
5202
0.587662
5197
0.587638
5059
0.587615
5127
0.587591
5169
0.587568
5156
0.587545
5184
0.587521
5185
0.587498
5227
0.587475
5144
0.587451
5170
0.587428
5122
0.587405
5117
0.587381
5117
0.587358
5204
0.587335
5164
0.587311
5113
0.587288
5117
0.587265
5153
0.587241
5112
0.587218
5078
0.587195
5119
0.587171
5088
0.587148
5143
0.587124
5160
0.587101
5059
0.587078
5138
0.587054
5224
0.587031
5115
0.587008
5164
0.586984
5131
0.586961
5098
0.586938
5097
0.586914
5006
0.586891
5098
0.586868
5130
0.586844
5147
0.586821
5098
0.586797
5150
0.586774
5161
0.586751
5110
0.586727
5050
0.586704
Ti 2p/4
Not Specified
2019
5
29
14
54
38
0
9
Casa Info Follows
1
Calib M = 281.704 A = 285 BE ADD
0
0
0
   XPS     Spectrum    Lens Mode:Hybrid   Resolution:Pass energy 20    Iris(Aper):slot(SLOT)
   Acqn. Time(s): 628        Sweeps: 5        Anode:Mono(Al (Mono))(150 W)   Step(meV): 100.0 
   Dwell Time(ms): 500        Charge Neutraliser :On   Acquired On :19/05/29 14:54:38
XPS
53
2
0
Mono(Al (Mono))
1486.69
150
1e+037
1e+037
641
641
1e+037
1e+037
FAT
20
1e+037
-4.5
0
1e+037
1e+037
1e+037
1e+037
Ti
2p
-1
Kinetic Energy
eV
1014.19
0.1
2
Intensity
d
Transmission
d
pulse counting
0.5
5
0
1e+037
1e+037
1e+037
0
502
862
23040
0.570424
0.575962
4997
0.575962
5015
0.575939
4920
0.575916
4948
0.575892
5025
0.575869
5105
0.575845
4964
0.575822
5005
0.575799
5075
0.575775
4989
0.575752
5062
0.575729
5130
0.575705
5107
0.575682
5168
0.575659
5109
0.575635
5219
0.575612
5277
0.575589
5329
0.575565
5387
0.575542
5410
0.575519
5418
0.575495
5480
0.575472
5525
0.575449
5596
0.575425
5553
0.575402
5560
0.575378
5734
0.575355
5733
0.575332
5707
0.575308
5686
0.575285
5803
0.575262
5726
0.575238
5704
0.575215
5547
0.575192
5479
0.575168
5465
0.575145
5476
0.575122
5377
0.575098
5201
0.575075
5250
0.575052
5057
0.575028
4982
0.575005
4848
0.574982
4797
0.574958
4684
0.574935
4563
0.574911
4465
0.574888
4407
0.574865
4314
0.574841
4335
0.574818
4263
0.574795
4166
0.574771
4054
0.574748
4108
0.574725
4073
0.574701
3968
0.574678
3980
0.574655
3985
0.574631
3972
0.574608
3871
0.574584
3925
0.574561
3853
0.574538
3874
0.574514
4000
0.574491
3925
0.574468
3879
0.574444
3894
0.574421
3843
0.574398
3890
0.574374
3967
0.574351
4013
0.574328
3895
0.574304
3958
0.574281
4008
0.574258
4023
0.574234
4023
0.574211
3860
0.574188
4074
0.574164
4046
0.574141
4170
0.574117
4197
0.574094
4259
0.574071
4343
0.574047
4421
0.574024
4463
0.574001
4571
0.573977
4613
0.573954
4742
0.573931
4779
0.573907
5015
0.573884
5134
0.573861
5242
0.573837
5457
0.573814
5636
0.573791
5840
0.573767
6141
0.573744
6371
0.573721
6738
0.573697
7075
0.573674
7334
0.57365
7661
0.573627
8034
0.573604
8410
0.57358
8503
0.573557
9064
0.573534
9155
0.57351
9330
0.573487
9413
0.573464
9335
0.57344
9304
0.573417
9148
0.573394
8880
0.57337
8655
0.573347
8229
0.573323
7852
0.5733
7397
0.573277
6975
0.573253
6680
0.57323
6201
0.573207
5942
0.573183
5561
0.57316
5194
0.573137
5075
0.573113
4940
0.57309
4816
0.573067
4619
0.573043
4579
0.57302
4426
0.572997
4426
0.572973
4424
0.57295
4343
0.572927
4350
0.572903
4394
0.57288
4299
0.572856
4396
0.572833
4376
0.57281
4480
0.572786
4446
0.572763
4531
0.57274
4615
0.572716
4597
0.572693
4669
0.57267
4759
0.572646
4949
0.572623
4926
0.5726
5057
0.572576
5186
0.572553
5219
0.57253
5569
0.572506
5773
0.572483
6145
0.572459
6498
0.572436
6829
0.572413
7275
0.572389
7815
0.572366
8607
0.572343
9265
0.572319
10217
0.572296
11272
0.572273
12679
0.572249
14436
0.572226
16354
0.572203
18279
0.572179
20121
0.572156
21674
0.572133
22887
0.572109
23040
0.572086
22170
0.572062
20488
0.572039
17714
0.572016
14793
0.571992
11692
0.571969
8841
0.571946
6658
0.571922
5027
0.571899
3987
0.571876
3241
0.571852
2772
0.571829
2512
0.571806
2256
0.571782
2144
0.571759
1959
0.571736
1882
0.571712
1745
0.571689
1709
0.571666
1661
0.571642
1614
0.571619
1538
0.571595
1469
0.571572
1381
0.571549
1351
0.571525
1320
0.571502
1287
0.571479
1198
0.571455
1185
0.571432
1163
0.571409
1089
0.571385
1121
0.571362
1144
0.571339
1117
0.571315
1095
0.571292
1073
0.571269
1035
0.571245
1016
0.571222
1031
0.571198
988
0.571175
967
0.571152
987
0.571128
975
0.571105
991
0.571088
1014
0.571072
983
0.571056
991
0.57104
940
0.571024
1006
0.571007
955
0.570991
934
0.570975
916
0.570959
934
0.570943
970
0.570926
919
0.57091
934
0.570894
980
0.570878
1017
0.570862
1001
0.570845
969
0.570829
932
0.570813
943
0.570797
920
0.570781
915
0.570764
969
0.570748
933
0.570732
919
0.570716
966
0.5707
938
0.570683
929
0.570667
921
0.570651
949
0.570635
951
0.570619
909
0.570602
934
0.570586
889
0.57057
900
0.570554
934
0.570538
862
0.570521
919
0.570505
959
0.570489
906
0.570473
879
0.570457
902
0.57044
908
0.570424
K 2p/5
Not Specified
2019
5
29
14
54
38
0
9
Casa Info Follows
1
Calib M = 281.704 A = 285 BE ADD
0
0
0
   XPS     Spectrum    Lens Mode:Hybrid   Resolution:Pass energy 20    Iris(Aper):slot(SLOT)
   Acqn. Time(s): 502        Sweeps: 5        Anode:Mono(Al (Mono))(150 W)   Step(meV): 100.0 
   Dwell Time(ms): 500        Charge Neutraliser :On   Acquired On :19/05/29 14:54:38
XPS
53
2
0
Mono(Al (Mono))
1486.69
150
1e+037
1e+037
641
641
1e+037
1e+037
FAT
20
1e+037
-4.5
0
1e+037
1e+037
1e+037
1e+037
K
2p
-1
Kinetic Energy
eV
1184.69
0.1
2
Intensity
d
Transmission
d
pulse counting
0.5
5
0
1e+037
1e+037
1e+037
0
402
899
1978
0.543607
0.546848
1018
0.546848
1016
0.546832
1004
0.546816
1000
0.546799
964
0.546783
1022
0.546767
970
0.546751
1051
0.546735
1003
0.546718
984
0.546702
1000
0.546686
997
0.54667
1004
0.546654
1009
0.546637
1009
0.546621
1034
0.546605
1009
0.546589
999
0.546573
1046
0.546556
998
0.54654
1007
0.546524
1016
0.546508
1038
0.546492
1006
0.546475
1034
0.546459
1015
0.546443
1049
0.546427
988
0.546411
971
0.546394
984
0.546378
994
0.546362
1019
0.546346
996
0.546329
957
0.546313
998
0.546297
983
0.546281
1032
0.546265
1047
0.546248
1040
0.546232
956
0.546216
992
0.5462
1034
0.546184
1000
0.546167
972
0.546151
1014
0.546135
995
0.546119
961
0.546103
955
0.546086
998
0.54607
1012
0.546054
1040
0.546038
997
0.546022
990
0.546005
982
0.545989
983
0.545973
998
0.545957
1015
0.545941
992
0.545924
995
0.545908
941
0.545892
1003
0.545876
1005
0.54586
985
0.545843
952
0.545827
981
0.545811
979
0.545795
974
0.545779
947
0.545762
954
0.545746
974
0.54573
970
0.545714
947
0.545698
982
0.545681
996
0.545665
999
0.545649
989
0.545633
966
0.545617
982
0.5456
984
0.545584
989
0.545568
983
0.545552
964
0.545536
966
0.545519
965
0.545503
945
0.545487
971
0.545471
945
0.545455
1005
0.545438
948
0.545422
954
0.545406
1025
0.54539
995
0.545373
955
0.545357
1000
0.545341
970
0.545325
1009
0.545309
992
0.545292
957
0.545276
954
0.54526
976
0.545244
996
0.545228
965
0.545211
996
0.545195
948
0.545179
970
0.545163
1010
0.545147
1000
0.54513
979
0.545114
952
0.545098
979
0.545082
988
0.545066
934
0.545049
964
0.545033
945
0.545017
917
0.545001
956
0.544985
971
0.544968
972
0.544952
912
0.544936
962
0.54492
899
0.544904
917
0.544887
1029
0.544871
990
0.544855
1003
0.544839
940
0.544823
962
0.544806
992
0.54479
976
0.544774
965
0.544758
981
0.544742
983
0.544725
950
0.544709
934
0.544693
951
0.544677
976
0.544661
950
0.544644
930
0.544628
945
0.544612
970
0.544596
1029
0.54458
974
0.544563
1029
0.544547
974
0.544531
988
0.544515
1001
0.544499
1062
0.544482
983
0.544466
1076
0.54445
1021
0.544434
1054
0.544417
1032
0.544401
1021
0.544385
991
0.544369
1033
0.544353
1009
0.544336
1020
0.54432
1008
0.544304
969
0.544288
1026
0.544272
1096
0.544255
1031
0.544239
1016
0.544223
1071
0.544207
1095
0.544191
1033
0.544174
1042
0.544158
1007
0.544142
1091
0.544126
1081
0.54411
1069
0.544093
1088
0.544077
1073
0.544061
1123
0.544045
1145
0.544029
1210
0.544012
1201
0.543996
1147
0.54398
1262
0.543964
1251
0.543948
1289
0.543931
1303
0.543915
1339
0.543899
1280
0.543883
1347
0.543867
1369
0.54385
1370
0.543834
1408
0.543818
1393
0.543802
1438
0.543786
1418
0.543769
1455
0.543753
1558
0.543737
1620
0.543721
1656
0.543705
1736
0.543688
1785
0.543672
1826
0.543656
1978
0.54364
1960
0.543624
1977
0.543607
C 1s/6
Not Specified
2019
5
29
14
54
38
0
9
Casa Info Follows
1
Calib M = 281.704 A = 285 BE ADD
0
0
0
   XPS     Spectrum    Lens Mode:Hybrid   Resolution:Pass energy 20    Iris(Aper):slot(SLOT)
   Acqn. Time(s): 628        Sweeps: 5        Anode:Mono(Al (Mono))(150 W)   Step(meV): 100.0 
   Dwell Time(ms): 500        Charge Neutraliser :On   Acquired On :19/05/29 14:54:38
XPS
53
2
0
Mono(Al (Mono))
1486.69
150
1e+037
1e+037
641
641
1e+037
1e+037
FAT
20
1e+037
-4.5
0
1e+037
1e+037
1e+037
1e+037
C
1s
-1
Kinetic Energy
eV
1189.19
0.1
2
Intensity
d
Transmission
d
pulse counting
0.5
5
0
1e+037
1e+037
1e+037
0
502
878
2219
0.542068
0.546119
973
0.546119
974
0.546103
1053
0.546086
991
0.54607
957
0.546054
995
0.546038
1003
0.546022
980
0.546005
1021
0.545989
1035
0.545973
980
0.545957
994
0.545941
982
0.545924
944
0.545908
983
0.545892
982
0.545876
995
0.54586
1018
0.545843
983
0.545827
1032
0.545811
1020
0.545795
1003
0.545779
970
0.545762
991
0.545746
1022
0.54573
997
0.545714
939
0.545698
976
0.545681
988
0.545665
985
0.545649
983
0.545633
969
0.545617
950
0.5456
980
0.545584
976
0.545568
952
0.545552
979
0.545536
987
0.545519
957
0.545503
956
0.545487
973
0.545471
963
0.545455
987
0.545438
973
0.545422
986
0.545406
1023
0.54539
958
0.545373
918
0.545357
947
0.545341
955
0.545325
938
0.545309
998
0.545292
987
0.545276
961
0.54526
983
0.545244
962
0.545228
981
0.545211
975
0.545195
1027
0.545179
977
0.545163
979
0.545147
942
0.54513
946
0.545114
998
0.545098
962
0.545082
942
0.545066
1036
0.545049
964
0.545033
951
0.545017
943
0.545001
1000
0.544985
923
0.544968
999
0.544952
955
0.544936
936
0.54492
967
0.544904
967
0.544887
986
0.544871
950
0.544855
1015
0.544839
976
0.544823
997
0.544806
989
0.54479
960
0.544774
965
0.544758
950
0.544742
944
0.544725
966
0.544709
974
0.544693
923
0.544677
1019
0.544661
998
0.544644
984
0.544628
966
0.544612
932
0.544596
978
0.54458
981
0.544563
978
0.544547
1043
0.544531
991
0.544515
974
0.544499
978
0.544482
991
0.544466
992
0.54445
1031
0.544434
1036
0.544417
1042
0.544401
1022
0.544385
1038
0.544369
1027
0.544353
1070
0.544336
1053
0.54432
1060
0.544304
1081
0.544288
980
0.544272
1050
0.544255
1037
0.544239
998
0.544223
1045
0.544207
1065
0.544191
1040
0.544174
996
0.544158
1053
0.544142
1061
0.544126
1046
0.54411
1087
0.544093
1075
0.544077
1056
0.544061
1177
0.544045
1188
0.544029
1215
0.544012
1179
0.543996
1169
0.54398
1256
0.543964
1220
0.543948
1264
0.543931
1292
0.543915
1330
0.543899
1343
0.543883
1380
0.543867
1351
0.54385
1412
0.543834
1366
0.543818
1376
0.543802
1446
0.543786
1479
0.543769
1501
0.543753
1592
0.543737
1623
0.543721
1631
0.543705
1740
0.543688
1826
0.543672
1788
0.543656
1931
0.54364
2020
0.543624
2014
0.543607
2137
0.543591
2179
0.543575
2139
0.543559
2219
0.543543
2156
0.543526
2068
0.54351
2026
0.543494
1944
0.543478
1804
0.543461
1760
0.543445
1664
0.543429
1554
0.543413
1402
0.543397
1322
0.54338
1183
0.543364
1134
0.543348
1111
0.543332
1062
0.543316
1046
0.543299
990
0.543283
974
0.543267
967
0.543251
973
0.543235
949
0.543218
948
0.543202
922
0.543186
940
0.54317
950
0.543154
959
0.543137
975
0.543121
932
0.543105
936
0.543089
934
0.543073
947
0.543056
930
0.54304
968
0.543024
933
0.543008
930
0.542992
932
0.542975
936
0.542959
943
0.542943
957
0.542927
914
0.542911
916
0.542894
945
0.542878
952
0.542862
942
0.542846
955
0.54283
925
0.542813
930
0.542797
906
0.542781
978
0.542765
936
0.542749
886
0.542732
933
0.542716
922
0.5427
896
0.542684
944
0.542668
942
0.542651
915
0.542635
908
0.542619
905
0.542603
939
0.542586
918
0.54257
939
0.542554
896
0.542538
910
0.542522
893
0.542505
952
0.542489
929
0.542473
908
0.542457
981
0.542441
915
0.542424
913
0.542408
914
0.542392
878
0.542376
914
0.54236
944
0.542343
928
0.542327
961
0.542311
919
0.542295
894
0.542279
921
0.542262
968
0.542246
939
0.54223
940
0.542214
915
0.542198
891
0.542181
955
0.542165
962
0.542149
946
0.542133
930
0.542117
913
0.5421
934
0.542084
904
0.542068
Cl 2p/7
Not Specified
2019
5
29
14
54
38
0
9
Casa Info Follows
1
Calib M = 281.704 A = 285 BE ADD
0
0
0
   XPS     Spectrum    Lens Mode:Hybrid   Resolution:Pass energy 20    Iris(Aper):slot(SLOT)
   Acqn. Time(s): 502        Sweeps: 5        Anode:Mono(Al (Mono))(150 W)   Step(meV): 100.0 
   Dwell Time(ms): 500        Charge Neutraliser :On   Acquired On :19/05/29 14:54:38
XPS
53
2
0
Mono(Al (Mono))
1486.69
150
1e+037
1e+037
641
641
1e+037
1e+037
FAT
20
1e+037
-4.5
0
1e+037
1e+037
1e+037
1e+037
Cl
2p
-1
Kinetic Energy
eV
1276.69
0.1
2
Intensity
d
Transmission
d
pulse counting
0.5
5
0
1e+037
1e+037
1e+037
0
402
887
1099
0.521545
0.527141
1003
0.527141
969
0.527113
965
0.527085
1004
0.527057
974
0.52703
970
0.527002
952
0.526974
951
0.526946
964
0.526918
955
0.52689
964
0.526862
921
0.526834
967
0.526806
995
0.526778
968
0.52675
945
0.526722
957
0.526694
979
0.526666
919
0.526638
943
0.52661
977
0.526582
948
0.526554
918
0.526526
1005
0.526498
993
0.52647
990
0.526442
925
0.526414
984
0.526386
955
0.526358
968
0.52633
945
0.526302
924
0.526274
965
0.526246
940
0.526218
887
0.52619
928
0.526162
984
0.526134
947
0.526106
909
0.526078
938
0.52605
928
0.526022
887
0.525994
913
0.525966
943
0.525938
942
0.52591
968
0.525882
963
0.525854
947
0.525826
942
0.525798
962
0.52577
977
0.525742
896
0.525714
964
0.525686
979
0.525658
978
0.52563
922
0.525602
931
0.525575
972
0.525547
977
0.525519
933
0.525491
952
0.525463
978
0.525435
941
0.525407
965
0.525379
929
0.525351
970
0.525323
953
0.525295
961
0.525267
947
0.525239
912
0.525211
942
0.525183
929
0.525155
944
0.525127
1026
0.525099
1014
0.525071
947
0.525043
927
0.525015
928
0.524987
988
0.524959
941
0.524931
945
0.524903
912
0.524875
898
0.524847
988
0.524819
934
0.524791
957
0.524763
973
0.524735
954
0.524707
922
0.524679
952
0.524651
954
0.524623
975
0.524595
955
0.524567
1007
0.524539
971
0.524511
987
0.524483
956
0.524455
963
0.524427
993
0.524399
1016
0.524371
966
0.524343
961
0.524315
926
0.524287
943
0.524259
947
0.524231
1002
0.524203
1018
0.524175
953
0.524147
959
0.524119
984
0.524092
1016
0.524064
977
0.524036
961
0.524008
1045
0.52398
1020
0.523952
1008
0.523924
1035
0.523896
998
0.523868
1010
0.52384
1033
0.523812
1020
0.523784
1069
0.523756
955
0.523728
1046
0.5237
1015
0.523672
1026
0.523644
1051
0.523616
1040
0.523588
1093
0.52356
1045
0.523532
1012
0.523504
1024
0.523476
1035
0.523448
1099
0.52342
1062
0.523392
1026
0.523364
1053
0.523336
1032
0.523308
1042
0.52328
1068
0.523252
1063
0.523224
1038
0.523196
1036
0.523168
1020
0.52314
1020
0.523112
1025
0.523084
985
0.523056
987
0.523028
935
0.523
940
0.522972
960
0.522944
964
0.522916
1013
0.522888
960
0.52286
940
0.522832
1019
0.522804
957
0.522776
933
0.522748
984
0.52272
949
0.522692
978
0.522664
967
0.522637
953
0.522609
948
0.522581
985
0.522553
979
0.522525
945
0.522497
922
0.522469
903
0.522441
958
0.522413
919
0.522385
964
0.522357
961
0.522329
900
0.522301
954
0.522273
970
0.522245
949
0.522217
922
0.522189
927
0.522161
971
0.522133
911
0.522105
963
0.522077
944
0.522049
960
0.522021
933
0.521993
962
0.521965
935
0.521937
956
0.521909
1016
0.521881
962
0.521853
987
0.521825
947
0.521797
967
0.521769
958
0.521741
987
0.521713
934
0.521685
964
0.521657
997
0.521629
976
0.521601
971
0.521573
954
0.521545
S 2p/8
Not Specified
2019
5
29
14
54
38
0
9
Casa Info Follows
1
Calib M = 281.704 A = 285 BE ADD
0
0
0
   XPS     Spectrum    Lens Mode:Hybrid   Resolution:Pass energy 20    Iris(Aper):slot(SLOT)
   Acqn. Time(s): 502        Sweeps: 5        Anode:Mono(Al (Mono))(150 W)   Step(meV): 100.0 
   Dwell Time(ms): 500        Charge Neutraliser :On   Acquired On :19/05/29 14:54:38
XPS
53
2
0
Mono(Al (Mono))
1486.69
150
1e+037
1e+037
641
641
1e+037
1e+037
FAT
20
1e+037
-4.5
0
1e+037
1e+037
1e+037
1e+037
S
2p
-1
Kinetic Energy
eV
1311.69
0.1
2
Intensity
d
Transmission
d
pulse counting
0.5
5
0
1e+037
1e+037
1e+037
0
402
903
1202
0.511577
0.517348
929
0.517348
988
0.51732
955
0.517292
1002
0.517264
1034
0.517236
980
0.517208
964
0.51718
1002
0.517152
1010
0.517124
952
0.517096
972
0.517068
985
0.51704
1000
0.517012
992
0.516984
930
0.516956
1005
0.516928
942
0.5169
990
0.516872
970
0.516844
987
0.516816
993
0.516788
973
0.516761
946
0.516733
947
0.516705
972
0.516677
971
0.516649
978
0.516621
1009
0.516593
975
0.516565
966
0.516537
993
0.516509
996
0.516481
949
0.516453
969
0.516425
972
0.516397
985
0.516369
979
0.516341
964
0.516313
972
0.516285
1007
0.516257
1006
0.516229
983
0.516201
960
0.516173
947
0.516145
972
0.516117
974
0.516089
980
0.516061
986
0.516033
977
0.516005
1034
0.515977
1028
0.515949
989
0.515921
1002
0.515893
1010
0.515865
1042
0.515837
1005
0.515809
1001
0.515781
1038
0.515753
1043
0.515725
1030
0.515697
1046
0.515669
1065
0.515641
1087
0.515613
1034
0.515585
1081
0.515557
1068
0.515529
1042
0.515501
1039
0.515473
1041
0.515445
1078
0.515417
1091
0.515389
1105
0.515361
1149
0.515333
1098
0.515306
1162
0.515278
1055
0.51525
1142
0.515222
1070
0.515194
1089
0.515166
1122
0.515138
1130
0.51511
1148
0.515082
1202
0.515054
1126
0.515026
1142
0.514998
1169
0.51497
1114
0.514942
1184
0.514914
1160
0.514886
1121
0.514858
1095
0.51483
1070
0.514802
1047
0.514774
1082
0.514746
1057
0.514718
1079
0.51469
1059
0.514662
994
0.514634
1021
0.514606
985
0.514578
989
0.51455
1005
0.514522
982
0.514494
984
0.514466
988
0.514438
980
0.51441
981
0.514382
971
0.514354
1062
0.514326
961
0.514298
923
0.51427
979
0.514242
977
0.514214
989
0.514186
998
0.514158
1010
0.51413
1012
0.514102
1026
0.514074
1028
0.514046
972
0.514018
960
0.51399
971
0.513962
1022
0.513934
950
0.513906
979
0.513878
971
0.513851
985
0.513822
970
0.513795
972
0.513767
986
0.513739
958
0.513711
971
0.513683
1000
0.513655
1006
0.513627
1058
0.513599
1016
0.513571
1007
0.513543
988
0.513515
983
0.513487
959
0.513459
972
0.513431
999
0.513403
1016
0.513375
992
0.513347
1006
0.513319
1002
0.513291
942
0.513263
1043
0.513235
1006
0.513207
964
0.513179
986
0.513151
1016
0.513123
997
0.513095
974
0.513067
993
0.513039
963
0.513011
1011
0.512983
1003
0.512955
1000
0.512927
983
0.512899
933
0.512871
995
0.512843
1008
0.512815
1012
0.512787
962
0.512759
936
0.512731
975
0.512703
978
0.512675
973
0.512647
982
0.512619
926
0.512591
956
0.512563
992
0.512535
1069
0.512507
1011
0.512479
1034
0.512451
969
0.512423
903
0.512396
985
0.512364
1011
0.512329
1023
0.512293
1012
0.512257
965
0.512221
993
0.512185
1018
0.51215
984
0.512114
960
0.512078
965
0.512042
986
0.512006
1034
0.511971
968
0.511935
987
0.511899
1014
0.511863
979
0.511827
1040
0.511792
992
0.511756
1014
0.51172
991
0.511684
1004
0.511648
1013
0.511612
1045
0.511577
Si 2s/9
Not Specified
2019
5
29
14
54
38
0
9
Casa Info Follows
1
Calib M = 281.704 A = 285 BE ADD
0
0
0
   XPS     Spectrum    Lens Mode:Hybrid   Resolution:Pass energy 20    Iris(Aper):slot(SLOT)
   Acqn. Time(s): 878        Sweeps: 5        Anode:Mono(Al (Mono))(150 W)   Step(meV): 100.0 
   Dwell Time(ms): 500        Charge Neutraliser :On   Acquired On :19/05/29 14:54:38
XPS
53
2
0
Mono(Al (Mono))
1486.69
150
1e+037
1e+037
641
641
1e+037
1e+037
FAT
20
1e+037
-4.5
0
1e+037
1e+037
1e+037
1e+037
Si
2s
-1
Kinetic Energy
eV
1316.19
0.1
2
Intensity
d
Transmission
d
pulse counting
0.5
5
0
1e+037
1e+037
1e+037
0
702
916
1459
0.504595
0.516089
972
0.516089
992
0.516061
985
0.516033
1009
0.516005
973
0.515977
973
0.515949
999
0.515921
981
0.515893
1034
0.515865
1000
0.515837
983
0.515809
1075
0.515781
1073
0.515753
1068
0.515725
996
0.515697
1037
0.515669
1036
0.515641
1095
0.515613
1063
0.515585
1029
0.515557
1054
0.515529
1042
0.515501
1068
0.515473
1052
0.515445
1116
0.515417
1099
0.515389
1109
0.515361
1176
0.515333
1106
0.515306
1098
0.515278
1126
0.51525
1181
0.515222
1148
0.515194
1096
0.515166
1174
0.515138
1156
0.51511
1139
0.515082
1165
0.515054
1196
0.515026
1123
0.514998
1092
0.51497
1153
0.514942
1161
0.514914
1134
0.514886
1142
0.514858
1119
0.51483
1137
0.514802
1109
0.514774
1073
0.514746
1040
0.514718
1013
0.51469
1045
0.514662
1005
0.514634
993
0.514606
946
0.514578
1012
0.51455
962
0.514522
1037
0.514494
986
0.514466
986
0.514438
995
0.51441
983
0.514382
1011
0.514354
1033
0.514326
1025
0.514298
996
0.51427
1043
0.514242
988
0.514214
965
0.514186
974
0.514158
934
0.51413
986
0.514102
962
0.514074
996
0.514046
1000
0.514018
946
0.51399
1015
0.513962
999
0.513934
990
0.513906
1005
0.513878
993
0.513851
1011
0.513822
1033
0.513795
958
0.513767
995
0.513739
979
0.513711
952
0.513683
1027
0.513655
1009
0.513627
953
0.513599
1001
0.513571
982
0.513543
936
0.513515
979
0.513487
989
0.513459
972
0.513431
996
0.513403
1015
0.513375
980
0.513347
1007
0.513319
1008
0.513291
959
0.513263
1015
0.513235
963
0.513207
984
0.513179
997
0.513151
993
0.513123
976
0.513095
994
0.513067
1013
0.513039
968
0.513011
991
0.512983
916
0.512955
934
0.512927
980
0.512899
1076
0.512871
975
0.512843
986
0.512815
923
0.512787
1014
0.512759
998
0.512731
939
0.512703
1002
0.512675
962
0.512647
1009
0.512619
929
0.512591
1003
0.512563
993
0.512535
1001
0.512507
948
0.512479
998
0.512451
959
0.512423
977
0.512396
1001
0.512364
1015
0.512329
1004
0.512293
974
0.512257
968
0.512221
999
0.512185
969
0.51215
982
0.512114
1034
0.512078
1017
0.512042
984
0.512006
991
0.511971
965
0.511935
948
0.511899
983
0.511863
949
0.511827
1010
0.511792
1004
0.511756
1054
0.51172
940
0.511684
964
0.511648
1000
0.511612
986
0.511577
1066
0.511541
1005
0.511505
1009
0.511469
1024
0.511433
1006
0.511398
1033
0.511362
975
0.511326
1015
0.51129
1002
0.511254
1021
0.511219
1006
0.511183
1098
0.511147
1034
0.511111
1013
0.511075
1060
0.51104
1034
0.511004
1075
0.510968
1049
0.510932
1089
0.510896
1107
0.510861
1062
0.510825
1082
0.510789
1069
0.510753
1078
0.510717
1136
0.510682
1107
0.510646
1129
0.51061
1153
0.510574
1125
0.510538
1159
0.510503
1195
0.510467
1170
0.510431
1168
0.510395
1221
0.510359
1194
0.510324
1247
0.510288
1183
0.510252
1236
0.510216
1323
0.51018
1313
0.510145
1371
0.510109
1331
0.510073
1390
0.510037
1439
0.510001
1355
0.509965
1441
0.50993
1459
0.509894
1410
0.509858
1413
0.509822
1363
0.509786
1441
0.509751
1424
0.509715
1363
0.509679
1335
0.509643
1318
0.509607
1284
0.509572
1269
0.509536
1225
0.5095
1186
0.509464
1169
0.509428
1140
0.509393
1173
0.509357
1078
0.509321
1099
0.509285
1078
0.509249
1125
0.509214
1074
0.509178
1071
0.509142
1066
0.509106
1070
0.50907
1079
0.509035
1030
0.508999
1065
0.508963
1073
0.508927
1072
0.508891
1047
0.508856
1052
0.50882
1054
0.508784
1094
0.508748
1056
0.508712
1076
0.508677
1027
0.508641
1019
0.508605
1084
0.508569
1062
0.508533
1046
0.508498
990
0.508462
1013
0.508426
1067
0.50839
1049
0.508354
1041
0.508318
1021
0.508283
1069
0.508247
1024
0.508211
1061
0.508175
1065
0.508139
976
0.508104
996
0.508068
1064
0.508032
1007
0.507996
1030
0.50796
1047
0.507925
1017
0.507889
1022
0.507853
1060
0.507817
1045
0.507781
1058
0.507746
1019
0.50771
1041
0.507674
1045
0.507638
1024
0.507602
1014
0.507567
1020
0.507531
1056
0.507495
1034
0.507459
1101
0.507423
1054
0.507388
1036
0.507352
1069
0.507316
987
0.50728
1005
0.507244
1021
0.507209
1002
0.507173
1035
0.507137
1075
0.507101
989
0.507065
1047
0.50703
990
0.506994
1032
0.506958
1029
0.506922
1015
0.506886
1050
0.506851
1040
0.506815
1044
0.506779
1020
0.506743
1025
0.506707
1014
0.506671
1068
0.506636
1070
0.5066
1004
0.506564
1034
0.506528
1057
0.506492
1024
0.506457
1072
0.506421
1051
0.506385
984
0.506349
1042
0.506313
1029
0.506278
1031
0.506242
1119
0.506206
1073
0.50617
1068
0.506134
1035
0.506099
1051
0.506063
1069
0.506027
998
0.505991
1005
0.505955
992
0.50592
1011
0.505884
1032
0.505848
1026
0.505812
1049
0.505776
1073
0.505741
1056
0.505705
1018
0.505669
1081
0.505633
1085
0.505597
1003
0.505562
1046
0.505526
1108
0.50549
1052
0.505454
1024
0.505418
1067
0.505383
1044
0.505347
990
0.505311
1043
0.505275
1035
0.505239
1031
0.505204
1046
0.505168
999
0.505132
1087
0.505096
1069
0.50506
1051
0.505024
1076
0.504989
1014
0.504953
1041
0.504917
1042
0.504881
1045
0.504845
1042
0.50481
1042
0.504774
1031
0.504738
1029
0.504702
1016
0.504666
1068
0.504631
998
0.504595
P 2p/10
Not Specified
2019
5
29
14
54
38
0
9
Casa Info Follows
1
Calib M = 281.704 A = 285 BE ADD
0
0
0
   XPS     Spectrum    Lens Mode:Hybrid   Resolution:Pass energy 20    Iris(Aper):slot(SLOT)
   Acqn. Time(s): 502        Sweeps: 5        Anode:Mono(Al (Mono))(150 W)   Step(meV): 100.0 
   Dwell Time(ms): 500        Charge Neutraliser :On   Acquired On :19/05/29 14:54:38
XPS
53
2
0
Mono(Al (Mono))
1486.69
150
1e+037
1e+037
641
641
1e+037
1e+037
FAT
20
1e+037
-4.5
0
1e+037
1e+037
1e+037
1e+037
P
2p
-1
Kinetic Energy
eV
1343.69
0.1
2
Intensity
d
Transmission
d
pulse counting
0.5
5
0
1e+037
1e+037
1e+037
0
402
912
1112
0.500119
0.50728
981
0.50728
1014
0.507244
1019
0.507209
1060
0.507173
1057
0.507137
1008
0.507101
1025
0.507065
987
0.50703
1029
0.506994
1049
0.506958
1018
0.506922
995
0.506886
1087
0.506851
1066
0.506815
1048
0.506779
1097
0.506743
1008
0.506707
1002
0.506671
1043
0.506636
1079
0.5066
1058
0.506564
985
0.506528
1067
0.506492
1020
0.506457
1055
0.506421
997
0.506385
1006
0.506349
1036
0.506313
1035
0.506278
1018
0.506242
1043
0.506206
1052
0.50617
1035
0.506134
1082
0.506099
1059
0.506063
1030
0.506027
1112
0.505991
1042
0.505955
1013
0.50592
1003
0.505884
1032
0.505848
1044
0.505812
1000
0.505776
1038
0.505741
1097
0.505705
1051
0.505669
1075
0.505633
1039
0.505597
1027
0.505562
1025
0.505526
1033
0.50549
1016
0.505454
1002
0.505418
1016
0.505383
1027
0.505347
1016
0.505311
999
0.505275
945
0.505239
1012
0.505204
1058
0.505168
1057
0.505132
1032
0.505096
1061
0.50506
1020
0.505024
993
0.504989
1055
0.504953
1006
0.504917
1042
0.504881
1060
0.504845
1058
0.50481
1032
0.504774
1094
0.504738
1025
0.504702
1035
0.504666
1030
0.504631
1037
0.504595
1033
0.504559
1007
0.504523
1004
0.504487
982
0.504452
1064
0.504416
1059
0.50438
1058
0.504344
1086
0.504308
993
0.504273
1009
0.504237
1010
0.504201
978
0.504165
1076
0.504129
1030
0.504094
1030
0.504058
1066
0.504022
1069
0.503986
1019
0.50395
1028
0.503915
996
0.503879
1024
0.503843
1040
0.503807
1025
0.503771
1038
0.503736
1013
0.5037
1043
0.503664
1031
0.503628
1050
0.503592
1045
0.503557
1028
0.503521
977
0.503485
1044
0.503449
1041
0.503413
1046
0.503377
988
0.503342
980
0.503306
1013
0.50327
1068
0.503234
982
0.503199
1022
0.503163
995
0.503127
989
0.503091
963
0.503055
1015
0.503019
1026
0.502984
1017
0.502948
982
0.502912
1039
0.502876
1013
0.50284
1004
0.502805
1027
0.502769
1029
0.502733
1018
0.502697
1022
0.502661
1004
0.502626
996
0.50259
994
0.502554
961
0.502518
985
0.502482
1001
0.502447
992
0.502411
966
0.502375
986
0.502339
994
0.502303
991
0.502268
1028
0.502232
978
0.502196
947
0.50216
950
0.502124
997
0.502089
1001
0.502053
980
0.502017
994
0.501981
1035
0.501945
1055
0.50191
953
0.501874
984
0.501838
997
0.501802
1022
0.501766
1049
0.501731
985
0.501695
976
0.501659
956
0.501623
980
0.501587
985
0.501552
989
0.501516
963
0.50148
980
0.501444
1057
0.501408
998
0.501373
970
0.501337
947
0.501301
1018
0.501265
1014
0.501229
982
0.501193
943
0.501158
989
0.501122
997
0.501086
983
0.50105
949
0.501014
1004
0.500979
1030
0.500943
1021
0.500907
1019
0.500871
970
0.500835
938
0.5008
956
0.500764
993
0.500728
1023
0.500692
1031
0.500656
964
0.500621
977
0.500585
995
0.500549
1006
0.500513
1009
0.500477
966
0.500442
912
0.500406
983
0.50037
958
0.500334
961
0.500298
1030
0.500263
992
0.500227
986
0.500191
987
0.500155
943
0.500119
Al 2s/11
Not Specified
2019
5
29
14
54
38
0
9
Casa Info Follows
1
Calib M = 281.704 A = 285 BE ADD
0
0
0
   XPS     Spectrum    Lens Mode:Hybrid   Resolution:Pass energy 20    Iris(Aper):slot(SLOT)
   Acqn. Time(s): 752        Sweeps: 5        Anode:Mono(Al (Mono))(150 W)   Step(meV): 100.0 
   Dwell Time(ms): 500        Charge Neutraliser :On   Acquired On :19/05/29 14:54:38
XPS
53
2
0
Mono(Al (Mono))
1486.69
150
1e+037
1e+037
641
641
1e+037
1e+037
FAT
20
1e+037
-4.5
0
1e+037
1e+037
1e+037
1e+037
Al
2s
-1
Kinetic Energy
eV
1353.69
0.1
2
Intensity
d
Transmission
d
pulse counting
0.5
5
0
1e+037
1e+037
1e+037
0
602
889
2319
0.492959
0.5037
1062
0.5037
1080
0.503664
1009
0.503628
1003
0.503592
974
0.503557
1058
0.503521
1077
0.503485
1026
0.503449
999
0.503413
1036
0.503377
1085
0.503342
1040
0.503306
1024
0.50327
1011
0.503234
1043
0.503199
1023
0.503163
1037
0.503127
1018
0.503091
1022
0.503055
980
0.503019
990
0.502984
1030
0.502948
991
0.502912
1014
0.502876
1067
0.50284
1026
0.502805
1035
0.502769
1038
0.502733
1033
0.502697
946
0.502661
1001
0.502626
1016
0.50259
998
0.502554
1009
0.502518
1007
0.502482
981
0.502447
1008
0.502411
1004
0.502375
973
0.502339
988
0.502303
1026
0.502268
994
0.502232
981
0.502196
955
0.50216
969
0.502124
968
0.502089
952
0.502053
971
0.502017
1012
0.501981
1047
0.501945
977
0.50191
1028
0.501874
985
0.501838
1000
0.501802
1036
0.501766
1045
0.501731
995
0.501695
1022
0.501659
993
0.501623
1013
0.501587
968
0.501552
999
0.501516
996
0.50148
968
0.501444
988
0.501408
997
0.501373
1029
0.501337
976
0.501301
975
0.501265
1013
0.501229
1014
0.501193
1031
0.501158
983
0.501122
951
0.501086
975
0.50105
960
0.501014
1005
0.500979
1018
0.500943
960
0.500907
980
0.500871
978
0.500835
974
0.5008
961
0.500764
995
0.500728
967
0.500692
959
0.500656
966
0.500621
940
0.500585
978
0.500549
927
0.500513
954
0.500477
936
0.500442
1005
0.500406
1006
0.50037
941
0.500334
969
0.500298
951
0.500263
978
0.500227
1015
0.500191
969
0.500155
1005
0.500119
988
0.500084
966
0.500048
1030
0.500012
1077
0.499976
1104
0.49994
1046
0.499905
997
0.499869
963
0.499833
1037
0.499797
1015
0.499761
994
0.499725
985
0.49969
1021
0.499654
1016
0.499618
1027
0.499582
1034
0.499546
1022
0.499511
1074
0.499475
1044
0.499439
1030
0.499403
1091
0.499367
1086
0.499332
1080
0.499296
1086
0.49926
1083
0.499224
1062
0.499188
1089
0.499153
1143
0.499117
1160
0.499081
1132
0.499045
1128
0.499009
1180
0.498974
1207
0.498938
1249
0.498902
1202
0.498866
1224
0.49883
1217
0.498795
1305
0.498759
1323
0.498723
1327
0.498687
1376
0.498651
1350
0.498616
1421
0.49858
1426
0.498544
1446
0.498508
1461
0.498472
1480
0.498437
1596
0.498401
1656
0.498365
1635
0.498329
1756
0.498293
1804
0.498258
1915
0.498222
1890
0.498186
1987
0.49815
2070
0.498114
2069
0.498078
2192
0.498043
2134
0.498007
2158
0.497971
2296
0.497935
2319
0.497899
2302
0.497864
2273
0.497828
2221
0.497792
2214
0.497756
2130
0.49772
2004
0.497685
1956
0.497649
1844
0.497613
1762
0.497577
1731
0.497541
1595
0.497506
1448
0.49747
1368
0.497434
1378
0.497398
1417
0.497362
1260
0.497327
1225
0.497291
1168
0.497255
1165
0.497219
1151
0.497183
1139
0.497148
1116
0.497112
1095
0.497076
1102
0.49704
1084
0.497004
1045
0.496969
1029
0.496933
1044
0.496897
1009
0.496861
1098
0.496825
974
0.49679
1023
0.496754
937
0.496718
977
0.496682
1038
0.496646
1053
0.496611
975
0.496575
1014
0.496539
998
0.496503
982
0.496467
940
0.496431
994
0.496396
969
0.49636
947
0.496324
980
0.496288
1038
0.496253
1005
0.496217
990
0.496181
989
0.496145
984
0.496109
967
0.496073
1001
0.496038
980
0.496002
968
0.495966
987
0.49593
935
0.495894
985
0.495859
964
0.495823
1010
0.495787
958
0.495751
976
0.495715
1008
0.49568
994
0.495644
961
0.495608
955
0.495572
971
0.495536
954
0.495501
977
0.495465
990
0.495429
1027
0.495393
1009
0.495357
997
0.495322
940
0.495286
929
0.49525
972
0.495214
975
0.495178
964
0.495143
963
0.495107
981
0.495071
1012
0.495035
919
0.494999
918
0.494964
958
0.494928
999
0.494892
982
0.494856
985
0.49482
1008
0.494785
994
0.494749
949
0.494713
963
0.494677
972
0.494641
972
0.494606
982
0.49457
995
0.494534
974
0.494498
964
0.494462
950
0.494426
973
0.494391
984
0.494355
901
0.494319
937
0.494283
957
0.494247
967
0.494212
1018
0.494176
1018
0.49414
994
0.494104
1009
0.494068
999
0.494033
938
0.493997
992
0.493961
1017
0.493925
929
0.493889
974
0.493854
981
0.493818
967
0.493782
947
0.493746
980
0.49371
969
0.493675
962
0.493639
1005
0.493603
979
0.493567
941
0.493531
997
0.493496
969
0.49346
889
0.493424
997
0.493388
974
0.493352
964
0.493317
1011
0.493281
981
0.493245
964
0.493209
998
0.493173
948
0.493138
969
0.493102
1022
0.493066
941
0.49303
943
0.492994
981
0.492959
Si 2p/12
Not Specified
2019
5
29
14
54
38
0
9
Casa Info Follows
1
Calib M = 281.704 A = 285 BE ADD
0
0
0
   XPS     Spectrum    Lens Mode:Hybrid   Resolution:Pass energy 20    Iris(Aper):slot(SLOT)
   Acqn. Time(s): 502        Sweeps: 5        Anode:Mono(Al (Mono))(150 W)   Step(meV): 100.0 
   Dwell Time(ms): 500        Charge Neutraliser :On   Acquired On :19/05/29 14:54:38
XPS
53
2
0
Mono(Al (Mono))
1486.69
150
1e+037
1e+037
641
641
1e+037
1e+037
FAT
20
1e+037
-4.5
0
1e+037
1e+037
1e+037
1e+037
Si
2p
-1
Kinetic Energy
eV
1374.69
0.1
2
Intensity
d
Transmission
d
pulse counting
0.5
5
0
1e+037
1e+037
1e+037
0
402
895
1444
0.48902
0.496181
992
0.496181
1005
0.496145
910
0.496109
930
0.496073
1001
0.496038
999
0.496002
1023
0.495966
1020
0.49593
1002
0.495894
957
0.495859
969
0.495823
985
0.495787
972
0.495751
964
0.495715
988
0.49568
1007
0.495644
1015
0.495608
980
0.495572
940
0.495536
948
0.495501
959
0.495465
973
0.495429
980
0.495393
974
0.495357
969
0.495322
970
0.495286
987
0.49525
964
0.495214
974
0.495178
957
0.495143
1017
0.495107
988
0.495071
943
0.495035
997
0.494999
986
0.494964
977
0.494928
944
0.494892
947
0.494856
980
0.49482
1005
0.494785
947
0.494749
941
0.494713
973
0.494677
1004
0.494641
960
0.494606
978
0.49457
988
0.494534
954
0.494498
956
0.494462
972
0.494426
997
0.494391
943
0.494355
949
0.494319
983
0.494283
944
0.494247
960
0.494212
974
0.494176
1003
0.49414
951
0.494104
957
0.494068
970
0.494033
910
0.493997
960
0.493961
930
0.493925
976
0.493889
942
0.493854
994
0.493818
979
0.493782
974
0.493746
955
0.49371
944
0.493675
924
0.493639
934
0.493603
946
0.493567
974
0.493531
976
0.493496
995
0.49346
950
0.493424
949
0.493388
922
0.493352
910
0.493317
981
0.493281
936
0.493245
895
0.493209
968
0.493173
1008
0.493138
967
0.493102
927
0.493066
973
0.49303
985
0.492994
988
0.492959
990
0.492923
972
0.492887
1007
0.492851
1020
0.492815
994
0.492779
986
0.492744
1016
0.492708
964
0.492672
968
0.492636
1018
0.4926
1027
0.492565
1031
0.492529
1057
0.492493
1039
0.492457
971
0.492421
1033
0.492386
1061
0.49235
1020
0.492314
1037
0.492278
1092
0.492242
1068
0.492207
1092
0.492171
1122
0.492135
1142
0.492099
1112
0.492063
1154
0.492028
1183
0.491992
1245
0.491956
1273
0.49192
1256
0.491884
1253
0.491849
1262
0.491813
1315
0.491777
1359
0.491741
1444
0.491705
1385
0.49167
1425
0.491634
1395
0.491598
1387
0.491562
1396
0.491526
1434
0.491491
1364
0.491455
1320
0.491419
1254
0.491383
1255
0.491347
1229
0.491312
1128
0.491276
1143
0.49124
1138
0.491204
1031
0.491168
1060
0.491132
985
0.491097
1016
0.491061
1009
0.491025
921
0.490989
974
0.490953
1038
0.490918
982
0.490882
947
0.490846
944
0.49081
955
0.490774
985
0.490739
974
0.490703
938
0.490667
994
0.490631
969
0.490595
971
0.49056
966
0.490524
912
0.490488
952
0.490452
961
0.490416
953
0.490381
971
0.490345
1014
0.490309
926
0.490273
938
0.490237
945
0.490202
955
0.490166
928
0.49013
971
0.490094
976
0.490058
1005
0.490023
974
0.489987
970
0.489951
981
0.489915
965
0.489879
960
0.489844
992
0.489808
996
0.489772
932
0.489736
921
0.4897
954
0.489665
954
0.489629
941
0.489593
972
0.489557
993
0.489521
988
0.489486
971
0.48945
954
0.489414
967
0.489378
917
0.489342
1008
0.489306
976
0.489271
1006
0.489235
973
0.489199
970
0.489163
992
0.489127
962
0.489092
921
0.489056
925
0.48902
Al 2p/13
Not Specified
2019
5
29
14
54
38
0
9
Casa Info Follows
1
Calib M = 281.704 A = 285 BE ADD
0
0
0
   XPS     Spectrum    Lens Mode:Hybrid   Resolution:Pass energy 20    Iris(Aper):slot(SLOT)
   Acqn. Time(s): 628        Sweeps: 5        Anode:Mono(Al (Mono))(150 W)   Step(meV): 100.0 
   Dwell Time(ms): 500        Charge Neutraliser :On   Acquired On :19/05/29 14:54:38
XPS
53
2
0
Mono(Al (Mono))
1486.69
150
1e+037
1e+037
641
641
1e+037
1e+037
FAT
20
1e+037
-4.5
0
1e+037
1e+037
1e+037
1e+037
Al
2p
-1
Kinetic Energy
eV
1398.19
0.1
2
Intensity
d
Transmission
d
pulse counting
0.5
5
0
1e+037
1e+037
1e+037
0
502
757
2050
0.478816
0.487767
953
0.487767
976
0.487731
955
0.487695
962
0.487659
1001
0.487624
950
0.487588
937
0.487552
933
0.487516
962
0.48748
993
0.487445
1021
0.487409
1021
0.487373
1012
0.487337
958
0.487301
1010
0.487266
1030
0.48723
971
0.487194
960
0.487158
1015
0.487122
1003
0.487087
992
0.487051
964
0.487015
980
0.486979
972
0.486943
963
0.486908
995
0.486872
958
0.486836
1015
0.4868
990
0.486764
1026
0.486729
1013
0.486693
1013
0.486657
981
0.486621
1025
0.486585
973
0.48655
1027
0.486514
996
0.486478
1027
0.486442
978
0.486406
953
0.486371
985
0.486335
1005
0.486299
951
0.486263
975
0.486227
943
0.486192
969
0.486156
1019
0.48612
991
0.486084
1009
0.486048
1005
0.486013
989
0.485977
974
0.485941
953
0.485905
987
0.485869
973
0.485833
965
0.485798
956
0.485762
994
0.485726
997
0.48569
1016
0.485654
987
0.485619
996
0.485583
972
0.485547
976
0.485511
968
0.485475
956
0.48544
969
0.485404
972
0.485368
991
0.485332
985
0.485296
927
0.485261
948
0.485225
945
0.485189
1001
0.485153
1008
0.485117
938
0.485082
942
0.485046
948
0.48501
939
0.484974
968
0.484938
981
0.484903
948
0.484867
925
0.484831
944
0.484795
943
0.484759
920
0.484724
891
0.484688
870
0.484652
927
0.484616
907
0.48458
951
0.484545
966
0.484509
919
0.484473
957
0.484437
926
0.484401
929
0.484366
916
0.48433
935
0.484294
939
0.484258
939
0.484222
970
0.484187
908
0.484151
928
0.484115
899
0.484079
893
0.484043
915
0.484007
858
0.483972
933
0.483936
952
0.4839
914
0.483864
909
0.483828
923
0.483793
925
0.483757
922
0.483721
906
0.483685
872
0.483649
890
0.483614
924
0.483578
930
0.483542
903
0.483506
879
0.48347
882
0.483435
934
0.483399
942
0.483363
946
0.483327
930
0.483291
918
0.483256
942
0.48322
920
0.483184
944
0.483148
942
0.483112
929
0.483077
976
0.483041
983
0.483005
1011
0.482969
1000
0.482933
1053
0.482898
1034
0.482862
1071
0.482826
1079
0.48279
1046
0.482754
1013
0.482719
1104
0.482683
1059
0.482647
1111
0.482611
1143
0.482575
1116
0.48254
1148
0.482504
1192
0.482468
1205
0.482432
1215
0.482396
1224
0.48236
1321
0.482325
1384
0.482289
1405
0.482253
1472
0.482217
1490
0.482181
1544
0.482146
1643
0.48211
1729
0.482074
1772
0.482038
1812
0.482002
1929
0.481967
1963
0.481931
2050
0.481895
2025
0.481859
2001
0.481823
1992
0.481788
1959
0.481752
1816
0.481716
1767
0.48168
1715
0.481644
1568
0.481609
1499
0.481573
1371
0.481537
1306
0.481501
1229
0.481465
1136
0.48143
1002
0.481394
937
0.481358
908
0.481322
876
0.481286
858
0.481251
849
0.481215
832
0.481179
842
0.481143
887
0.481107
823
0.481072
814
0.481036
836
0.481
859
0.480964
802
0.480928
761
0.480893
850
0.480857
836
0.480821
825
0.480785
829
0.480749
828
0.480713
839
0.480678
802
0.480642
791
0.480606
813
0.48057
791
0.480534
816
0.480499
797
0.480463
823
0.480427
794
0.480391
810
0.480355
757
0.48032
818
0.480284
794
0.480248
789
0.480212
806
0.480176
780
0.480141
801
0.480105
819
0.480069
790
0.480033
796
0.479997
844
0.479962
800
0.479926
866
0.47989
811
0.479854
824
0.479818
826
0.479783
816
0.479747
769
0.479711
831
0.479675
878
0.479639
804
0.479604
818
0.479568
850
0.479532
828
0.479496
862
0.47946
854
0.479425
820
0.479389
847
0.479353
831
0.479317
788
0.479281
834
0.479246
792
0.47921
854
0.479174
866
0.479138
860
0.479102
848
0.479066
872
0.479031
909
0.478995
868
0.478959
900
0.478923
896
0.478887
899
0.478852
844
0.478816
end of experiment
